Second,eye_comb_direction_x,eye_comb_direction_y,eye_comb_direction_z,eye_r_openness,eye_r_direction_x,eye_r_direction_y,eye_r_direction_z,eye_r_origin_x,eye_r_origin_y,eye_r_origin_z,eye_r_pupil_diameter,eye_r_pupil_position_x,eye_r_pupil_position_y,eye_l_openness,eye_l_direction_x,eye_l_direction_y,eye_l_direction_z,eye_l_origin_x,eye_l_origin_y,eye_l_origin_z,eye_l_pupil_diameter,eye_l_pupil_position_x,eye_l_pupil_position_y,head_position_x,head_position_y,head_position_z,head_rotation_roll,head_rotation_pitch,head_rotation_yaw,EDA,BVP,TMP
0,-0.0016632079999999,-0.1951447,0.9807587,1.0,-0.03964233,-0.2114715999999999,0.9765778,-33.17699,-1.832245,-28.31467,3.943146,0.5516835,0.6795929,1.0,0.05383301,-0.1706848,0.9838409,32.42105,-1.583252,-27.4888,3.009888,0.4984504,0.6552629,-0.4829715,1.028497,-0.1612847,-0.1151396,0.706746,0.08126634,2.759631,-0.3419501645288604,31.23312284163789
0,-0.0016632079999999,-0.1951447,0.9807587,1.0,-0.03964233,-0.2114715999999999,0.9765778,-33.17699,-1.832245,-28.31467,3.943146,0.5516835,0.6795929,1.0,0.05383301,-0.1706848,0.9838409,32.42105,-1.583252,-27.4888,3.009888,0.4984504,0.6552629,-0.4829715,1.028497,-0.1612847,-0.1151396,0.706746,0.08126634,2.759631,-0.3419501645288604,31.23312284163789
0,-0.0016632079999999,-0.1951447,0.9807587,1.0,-0.03964233,-0.2114715999999999,0.9765778,-33.17699,-1.832245,-28.31467,3.943146,0.5516835,0.6795929,1.0,0.05383301,-0.1706848,0.9838409,32.42105,-1.583252,-27.4888,3.009888,0.4984504,0.6552629,-0.4829715,1.028497,-0.1612847,-0.1151396,0.706746,0.08126634,2.759631,-0.3419501645288604,31.23312284163789
0,-0.0016632079999999,-0.1951447,0.9807587,1.0,-0.03964233,-0.2114715999999999,0.9765778,-33.17699,-1.832245,-28.31467,3.943146,0.5516835,0.6795929,1.0,0.05383301,-0.1706848,0.9838409,32.42105,-1.583252,-27.4888,3.009888,0.4984504,0.6552629,-0.4829715,1.028497,-0.1612847,-0.1151396,0.706746,0.08126634,2.759631,-0.3419501645288604,31.23312284163789
0,-0.002655029,-0.1961212,0.9805603,1.0,-0.04014587,-0.2112732,0.976593,-33.18127,-1.831924,-28.31584,3.934662,0.5519136,0.6795698,1.0,0.05123901,-0.1737671,0.9834442,32.42578,-1.583908,-27.48796,3.009491,0.4987319999999999,0.6558347,-0.4829720999999999,1.028532,-0.1611676,-0.1149578,0.7070093000000001,0.0816148,2.759631,-0.3419501645288604,31.23312284163789
0,-0.002655029,-0.1961212,0.9805603,1.0,-0.04014587,-0.2112732,0.976593,-33.18127,-1.831924,-28.31584,3.934662,0.5519136,0.6795698,1.0,0.05123901,-0.1737671,0.9834442,32.42578,-1.583908,-27.48796,3.009491,0.4987319999999999,0.6558347,-0.4829720999999999,1.028532,-0.1611676,-0.1149578,0.7070093000000001,0.0816148,2.759631,-0.3419501645288604,31.23312284163789
0,-0.002655029,-0.1961212,0.9805603,1.0,-0.04014587,-0.2112732,0.976593,-33.18127,-1.831924,-28.31584,3.934662,0.5519136,0.6795698,1.0,0.05123901,-0.1737671,0.9834442,32.42578,-1.583908,-27.48796,3.009491,0.4987319999999999,0.6558347,-0.4829720999999999,1.028532,-0.1611676,-0.1149578,0.7070093000000001,0.0816148,2.759631,-0.3419501645288604,31.23312284163789
0,-0.0026092529999999,-0.1968079,0.9804382,1.0,-0.03919983,-0.2118072999999999,0.9765167,-33.18976,-1.82991,-28.31639,3.864471,0.5520448,0.6795698,1.0,0.05206299,-0.1737822999999999,0.9833984,32.42992,-1.583862,-27.4789,3.0345310000000003,0.4984504,0.6557566999999999,-0.4830390999999999,1.028525,-0.1611244999999999,-0.114927,0.707091,0.08173458,2.759631,-0.3419501645288604,31.23312284163789
0,-0.0026092529999999,-0.1968079,0.9804382,1.0,-0.03919983,-0.2118072999999999,0.9765167,-33.18976,-1.82991,-28.31639,3.864471,0.5520448,0.6795698,1.0,0.05206299,-0.1737822999999999,0.9833984,32.42992,-1.583862,-27.4789,3.0345310000000003,0.4984504,0.6557566999999999,-0.4830390999999999,1.028525,-0.1611244999999999,-0.114927,0.707091,0.08173458,2.759631,-0.3419501645288604,31.23312284163789
0,-0.0026092529999999,-0.1968079,0.9804382,1.0,-0.03919983,-0.2118072999999999,0.9765167,-33.18976,-1.82991,-28.31639,3.864471,0.5520448,0.6795698,1.0,0.05206299,-0.1737822999999999,0.9833984,32.42992,-1.583862,-27.4789,3.0345310000000003,0.4984504,0.6557566999999999,-0.4830390999999999,1.028525,-0.1611244999999999,-0.114927,0.707091,0.08173458,2.759631,-0.3419501645288604,31.23312284163789
0,0.009292603,-0.1947479,0.9808044,1.0,-0.04676819,-0.1889191,0.9808655,-33.127959999999995,-1.692902,-28.28777,3.804108,0.5511712,0.6704274,1.0,0.08073425,-0.2012634,0.9761963,32.48015,-1.425766,-27.46761,2.928513,0.491785,0.655284,-0.4831114,1.028526,-0.1610326,-0.1149863,0.7072016999999999,0.08187952,2.759631,-0.3419501645288604,31.23312284163789
0,0.009292603,-0.1947479,0.9808044,1.0,-0.04676819,-0.1889191,0.9808655,-33.127959999999995,-1.692902,-28.28777,3.804108,0.5511712,0.6704274,1.0,0.08073425,-0.2012634,0.9761963,32.48015,-1.425766,-27.46761,2.928513,0.491785,0.655284,-0.4831114,1.028526,-0.1610326,-0.1149863,0.7072016999999999,0.08187952,2.759631,-0.3419501645288604,31.23312284163789
0,0.009292603,-0.1947479,0.9808044,1.0,-0.04676819,-0.1889191,0.9808655,-33.127959999999995,-1.692902,-28.28777,3.804108,0.5511712,0.6704274,1.0,0.08073425,-0.2012634,0.9761963,32.48015,-1.425766,-27.46761,2.928513,0.491785,0.655284,-0.4831114,1.028526,-0.1610326,-0.1149863,0.7072016999999999,0.08187952,2.759631,-0.3419501645288604,31.23312284163789
0,-0.06237793,-0.1664886,0.9840546,1.0,-0.06237793,-0.1664886,0.9840546,-33.06702,-1.52124,-28.26547,3.370636,0.5517285,0.6601312,1.0,0.0,0.0,0.0,32.51221,-1.261993,-27.71518,-1.0,-1.0,-1.0,-0.4832054,1.02859,-0.1611176,-0.1151936,0.7071182,0.08209426,2.759631,-0.3419501645288604,31.23312284163789
0,-0.06237793,-0.1664886,0.9840546,1.0,-0.06237793,-0.1664886,0.9840546,-33.06702,-1.52124,-28.26547,3.370636,0.5517285,0.6601312,1.0,0.0,0.0,0.0,32.51221,-1.261993,-27.71518,-1.0,-1.0,-1.0,-0.4832054,1.02859,-0.1611176,-0.1151936,0.7071182,0.08209426,2.759631,-0.3419501645288604,31.23312284163789
0,-0.06237793,-0.1664886,0.9840546,1.0,-0.06237793,-0.1664886,0.9840546,-33.06702,-1.52124,-28.26547,3.370636,0.5517285,0.6601312,1.0,0.0,0.0,0.0,32.51221,-1.261993,-27.71518,-1.0,-1.0,-1.0,-0.4832054,1.02859,-0.1611176,-0.1151936,0.7071182,0.08209426,2.759631,-0.3419501645288604,31.23312284163789
0,-0.05764771,-0.1690674,0.983902,0.9899555,-0.05764771,-0.1690674,0.983902,-33.07274,-1.526031,-28.26093,3.401917,0.5511168000000001,0.6607124,0.8662895,0.0,0.0,0.0,32.51221,-1.261993,-27.71518,-1.0,-1.0,-1.0,-0.4832299,1.028732,-0.160964,-0.1157888999999999,0.7070009,0.08217595,2.759631,-0.3419501645288604,31.23312284163789
0,-0.05764771,-0.1690674,0.983902,0.9899555,-0.05764771,-0.1690674,0.983902,-33.07274,-1.526031,-28.26093,3.401917,0.5511168000000001,0.6607124,0.8662895,0.0,0.0,0.0,32.51221,-1.261993,-27.71518,-1.0,-1.0,-1.0,-0.4832299,1.028732,-0.160964,-0.1157888999999999,0.7070009,0.08217595,2.759631,-0.3419501645288604,31.23312284163789
0,-0.05764771,-0.1690674,0.983902,0.9899555,-0.05764771,-0.1690674,0.983902,-33.07274,-1.526031,-28.26093,3.401917,0.5511168000000001,0.6607124,0.8662895,0.0,0.0,0.0,32.51221,-1.261993,-27.71518,-1.0,-1.0,-1.0,-0.4832299,1.028732,-0.160964,-0.1157888999999999,0.7070009,0.08217595,2.759631,-0.3419501645288604,31.23312284163789
0,-0.05764771,-0.1690674,0.983902,0.9899555,-0.05764771,-0.1690674,0.983902,-33.07274,-1.526031,-28.26093,3.401917,0.5511168000000001,0.6607124,0.8662895,0.0,0.0,0.0,32.51221,-1.261993,-27.71518,-1.0,-1.0,-1.0,-0.4832805999999999,1.028769,-0.1609204,-0.1161412,0.7068619,0.08234197,2.759631,-0.3419501645288604,31.23312284163789
0,-0.05764771,-0.1690674,0.983902,0.9899555,-0.05764771,-0.1690674,0.983902,-33.07274,-1.526031,-28.26093,3.401917,0.5511168000000001,0.6607124,0.8662895,0.0,0.0,0.0,32.51221,-1.261993,-27.71518,-1.0,-1.0,-1.0,-0.4832805999999999,1.028769,-0.1609204,-0.1161412,0.7068619,0.08234197,2.759631,-0.3419501645288604,31.23312284163789
0,-0.05764771,-0.1690674,0.983902,0.9899555,-0.05764771,-0.1690674,0.983902,-33.07274,-1.526031,-28.26093,3.401917,0.5511168000000001,0.6607124,0.8662895,0.0,0.0,0.0,32.51221,-1.261993,-27.71518,-1.0,-1.0,-1.0,-0.4832805999999999,1.028769,-0.1609204,-0.1161412,0.7068619,0.08234197,2.759631,-0.3419501645288604,31.23312284163789
0,-0.06008911,-0.1718902999999999,0.9832764,0.9899555,-0.06008911,-0.1718902999999999,0.9832764,-33.07848,-1.528183,-28.26009,3.391388,0.5517285,0.6612935999999999,0.8662895,0.0,0.0,0.0,32.51221,-1.261993,-27.71518,-1.0,-1.0,-1.0,-0.4833621,1.028782,-0.1608841,-0.1164239,0.7068135999999999,0.08252526,2.759631,-0.3419501645288604,31.23312284163789
0,-0.06008911,-0.1718902999999999,0.9832764,0.9899555,-0.06008911,-0.1718902999999999,0.9832764,-33.07848,-1.528183,-28.26009,3.391388,0.5517285,0.6612935999999999,0.8662895,0.0,0.0,0.0,32.51221,-1.261993,-27.71518,-1.0,-1.0,-1.0,-0.4833621,1.028782,-0.1608841,-0.1164239,0.7068135999999999,0.08252526,2.759631,-0.3419501645288604,31.23312284163789
0,-0.06008911,-0.1718902999999999,0.9832764,0.9899555,-0.06008911,-0.1718902999999999,0.9832764,-33.07848,-1.528183,-28.26009,3.391388,0.5517285,0.6612935999999999,0.8662895,0.0,0.0,0.0,32.51221,-1.261993,-27.71518,-1.0,-1.0,-1.0,-0.4833621,1.028782,-0.1608841,-0.1164239,0.7068135999999999,0.08252526,2.759631,-0.3419501645288604,31.23312284163789
0,-0.05368042,-0.1605682,0.9855499,1.0,-0.05368042,-0.1605682,0.9855499,-33.10368,-1.558594,-28.2704,3.424332,0.5514979999999999,0.6603911,1.0,0.0,0.0,0.0,32.51221,-1.261993,-27.71518,-1.0,-1.0,-1.0,-0.4833514,1.028858,-0.160941,-0.1169055,0.7069006999999999,0.08250599,2.759631,-7.063141,31.23312284163789
0,-0.05368042,-0.1605682,0.9855499,1.0,-0.05368042,-0.1605682,0.9855499,-33.10368,-1.558594,-28.2704,3.424332,0.5514979999999999,0.6603911,1.0,0.0,0.0,0.0,32.51221,-1.261993,-27.71518,-1.0,-1.0,-1.0,-0.4833514,1.028858,-0.160941,-0.1169055,0.7069006999999999,0.08250599,2.759631,-7.063141,31.23312284163789
0,-0.05368042,-0.1605682,0.9855499,1.0,-0.05368042,-0.1605682,0.9855499,-33.10368,-1.558594,-28.2704,3.424332,0.5514979999999999,0.6603911,1.0,0.0,0.0,0.0,32.51221,-1.261993,-27.71518,-1.0,-1.0,-1.0,-0.4833514,1.028858,-0.160941,-0.1169055,0.7069006999999999,0.08250599,2.759631,-7.063141,31.23312284163789
0,-0.02520752,-0.1649017,0.9859772,0.9714869,-0.05738831,-0.1656342,0.9845123,-33.11407,-1.551819,-28.283340000000003,3.2840580000000004,0.5524998000000001,0.661159,0.8651286,0.05252075,-0.1624146,0.985321,32.56435,-1.270874,-27.46588,3.205139,0.4938791,0.6428868000000001,-0.4832948,1.028814,-0.1610532,-0.1172105,0.7070781999999999,0.08248625,2.759631,-7.063141,31.23312284163789
0,-0.02520752,-0.1649017,0.9859772,0.9714869,-0.05738831,-0.1656342,0.9845123,-33.11407,-1.551819,-28.283340000000003,3.2840580000000004,0.5524998000000001,0.661159,0.8651286,0.05252075,-0.1624146,0.985321,32.56435,-1.270874,-27.46588,3.205139,0.4938791,0.6428868000000001,-0.4832948,1.028814,-0.1610532,-0.1172105,0.7070781999999999,0.08248625,2.759631,-7.063141,31.23312284163789
0,-0.02520752,-0.1649017,0.9859772,0.9714869,-0.05738831,-0.1656342,0.9845123,-33.11407,-1.551819,-28.283340000000003,3.2840580000000004,0.5524998000000001,0.661159,0.8651286,0.05252075,-0.1624146,0.985321,32.56435,-1.270874,-27.46588,3.205139,0.4938791,0.6428868000000001,-0.4832948,1.028814,-0.1610532,-0.1172105,0.7070781999999999,0.08248625,2.759631,-7.063141,31.23312284163789
0,-0.02825928,-0.1667175,0.9855957,0.9748225,-0.06044006,-0.1674347,0.984024,-33.11469,-1.550217,-28.28862,3.266937,0.5530421999999999,0.6614895000000001,0.7692838000000001,0.0,0.0,0.0,32.56435,-1.270874,-27.46588,-1.0,-1.0,-1.0,-0.4832419,1.028824,-0.1612007,-0.1173101999999999,0.7073304,0.08248905,2.759631,-7.063141,31.23312284163789
0,-0.02825928,-0.1667175,0.9855957,0.9748225,-0.06044006,-0.1674347,0.984024,-33.11469,-1.550217,-28.28862,3.266937,0.5530421999999999,0.6614895000000001,0.7692838000000001,0.0,0.0,0.0,32.56435,-1.270874,-27.46588,-1.0,-1.0,-1.0,-0.4832419,1.028824,-0.1612007,-0.1173101999999999,0.7073304,0.08248905,2.759631,-7.063141,31.23312284163789
0,-0.02825928,-0.1667175,0.9855957,0.9748225,-0.06044006,-0.1674347,0.984024,-33.11469,-1.550217,-28.28862,3.266937,0.5530421999999999,0.6614895000000001,0.7692838000000001,0.0,0.0,0.0,32.56435,-1.270874,-27.46588,-1.0,-1.0,-1.0,-0.4832419,1.028824,-0.1612007,-0.1173101999999999,0.7073304,0.08248905,2.759631,-7.063141,31.23312284163789
0,-0.02749634,-0.1659851,0.985733,0.9624801,-0.05967712,-0.1667023,0.9841919,-33.11708,-1.545792,-28.28767,3.248825,0.5529951,0.6611755,0.7793135999999999,0.0,0.0,0.0,32.56435,-1.270874,-27.46588,-1.0,-1.0,-1.0,-0.4831902,1.028825,-0.1612237,-0.1175359999999999,0.7075718000000001,0.08224885,2.759631,-7.063141,31.23312284163789
0,-0.02749634,-0.1659851,0.985733,0.9624801,-0.05967712,-0.1667023,0.9841919,-33.11708,-1.545792,-28.28767,3.248825,0.5529951,0.6611755,0.7793135999999999,0.0,0.0,0.0,32.56435,-1.270874,-27.46588,-1.0,-1.0,-1.0,-0.4831902,1.028825,-0.1612237,-0.1175359999999999,0.7075718000000001,0.08224885,2.759631,-7.063141,31.23312284163789
0,-0.02749634,-0.1659851,0.985733,0.9624801,-0.05967712,-0.1667023,0.9841919,-33.11708,-1.545792,-28.28767,3.248825,0.5529951,0.6611755,0.7793135999999999,0.0,0.0,0.0,32.56435,-1.270874,-27.46588,-1.0,-1.0,-1.0,-0.4831902,1.028825,-0.1612237,-0.1175359999999999,0.7075718000000001,0.08224885,2.759631,-7.063141,31.23312284163789
0,-0.02723694,-0.1645812999999999,0.9859772,0.963084,-0.05941772,-0.1652985,0.984436,-33.11707,-1.545898,-28.28966,3.245987,0.5529521,0.6609567,0.8005515999999999,0.0,0.0,0.0,32.56435,-1.270874,-27.46588,-1.0,-1.0,-1.0,-0.4831447,1.028813,-0.1613292,-0.1177399,0.7076856,0.08193451,2.759631,-7.063141,31.23312284163789
0,-0.02723694,-0.1645812999999999,0.9859772,0.963084,-0.05941772,-0.1652985,0.984436,-33.11707,-1.545898,-28.28966,3.245987,0.5529521,0.6609567,0.8005515999999999,0.0,0.0,0.0,32.56435,-1.270874,-27.46588,-1.0,-1.0,-1.0,-0.4831447,1.028813,-0.1613292,-0.1177399,0.7076856,0.08193451,2.759631,-7.063141,31.23312284163789
0,-0.02723694,-0.1645812999999999,0.9859772,0.963084,-0.05941772,-0.1652985,0.984436,-33.11707,-1.545898,-28.28966,3.245987,0.5529521,0.6609567,0.8005515999999999,0.0,0.0,0.0,32.56435,-1.270874,-27.46588,-1.0,-1.0,-1.0,-0.4831447,1.028813,-0.1613292,-0.1177399,0.7076856,0.08193451,2.759631,-7.063141,31.23312284163789
0,-0.02456665,-0.1643829,0.986084,0.9518694,-0.05674744,-0.1651154,0.9846344,-33.116240000000005,-1.545898,-28.29478,3.192184,0.5524772,0.6609311,0.771742,0.0,0.0,0.0,32.56435,-1.270874,-27.46588,-1.0,-1.0,-1.0,-0.4829444999999999,1.028772,-0.16152,-0.1177861,0.7079518,0.08180259,2.759631,-7.063141,31.23312284163789
0,-0.02456665,-0.1643829,0.986084,0.9518694,-0.05674744,-0.1651154,0.9846344,-33.116240000000005,-1.545898,-28.29478,3.192184,0.5524772,0.6609311,0.771742,0.0,0.0,0.0,32.56435,-1.270874,-27.46588,-1.0,-1.0,-1.0,-0.4829444999999999,1.028772,-0.16152,-0.1177861,0.7079518,0.08180259,2.759631,-7.063141,31.23312284163789
0,-0.02456665,-0.1643829,0.986084,0.9518694,-0.05674744,-0.1651154,0.9846344,-33.116240000000005,-1.545898,-28.29478,3.192184,0.5524772,0.6609311,0.771742,0.0,0.0,0.0,32.56435,-1.270874,-27.46588,-1.0,-1.0,-1.0,-0.4829444999999999,1.028772,-0.16152,-0.1177861,0.7079518,0.08180259,2.759631,-7.063141,31.23312284163789
0,-0.02296448,-0.1628265,0.9863739,0.9302327,-0.05514526,-0.1635742,0.9849854,-33.10873,-1.545685,-28.29478,3.1347810000000003,0.5519548000000001,0.6606119,0.8104774,0.0,0.0,0.0,32.56435,-1.270874,-27.46588,-1.0,-1.0,-1.0,-0.4828692,1.028686,-0.1616846,-0.1180703999999999,0.7082066,0.0813008,2.759631,-32.11383,31.23312284163789
0,-0.02296448,-0.1628265,0.9863739,0.9302327,-0.05514526,-0.1635742,0.9849854,-33.10873,-1.545685,-28.29478,3.1347810000000003,0.5519548000000001,0.6606119,0.8104774,0.0,0.0,0.0,32.56435,-1.270874,-27.46588,-1.0,-1.0,-1.0,-0.4828692,1.028686,-0.1616846,-0.1180703999999999,0.7082066,0.0813008,2.759631,-32.11383,31.23312284163789
0,-0.02296448,-0.1628265,0.9863739,0.9302327,-0.05514526,-0.1635742,0.9849854,-33.10873,-1.545685,-28.29478,3.1347810000000003,0.5519548000000001,0.6606119,0.8104774,0.0,0.0,0.0,32.56435,-1.270874,-27.46588,-1.0,-1.0,-1.0,-0.4828692,1.028686,-0.1616846,-0.1180703999999999,0.7082066,0.0813008,2.759631,-32.11383,31.23312284163789
0,-0.04890442,-0.1589813,0.9860535,0.8800235999999999,-0.04890442,-0.1589813,0.9860535,-33.11548,-1.521454,-28.26346,2.856644,0.5511142,0.6584776,0.719313,0.0,0.0,0.0,32.56435,-1.270874,-27.46588,-1.0,-1.0,-1.0,-0.4826719,1.028447,-0.1617299999999999,-0.1181049,0.7085051,0.08058088,2.759631,-32.11383,31.57
0,-0.04890442,-0.1589813,0.9860535,0.8800235999999999,-0.04890442,-0.1589813,0.9860535,-33.11548,-1.521454,-28.26346,2.856644,0.5511142,0.6584776,0.719313,0.0,0.0,0.0,32.56435,-1.270874,-27.46588,-1.0,-1.0,-1.0,-0.4826719,1.028447,-0.1617299999999999,-0.1181049,0.7085051,0.08058088,2.759631,-32.11383,31.57
0,-0.04890442,-0.1589813,0.9860535,0.8800235999999999,-0.04890442,-0.1589813,0.9860535,-33.11548,-1.521454,-28.26346,2.856644,0.5511142,0.6584776,0.719313,0.0,0.0,0.0,32.56435,-1.270874,-27.46588,-1.0,-1.0,-1.0,-0.4826719,1.028447,-0.1617299999999999,-0.1181049,0.7085051,0.08058088,2.759631,-32.11383,31.57
0,-0.06610107,-0.161972,0.9845734,0.6511134,-0.06610107,-0.161972,0.9845734,-33.105259999999994,-1.430206,-28.37242,2.991898,0.5537616,0.6571851,0.0,0.0,0.0,0.0,32.56435,-1.270874,-27.46588,-1.0,-1.0,-1.0,-0.4826719,1.028447,-0.1617299999999999,-0.1181049,0.7085051,0.08058088,2.759631,-32.11383,31.57
0,-0.06610107,-0.161972,0.9845734,0.6511134,-0.06610107,-0.161972,0.9845734,-33.105259999999994,-1.430206,-28.37242,2.991898,0.5537616,0.6571851,0.0,0.0,0.0,0.0,32.56435,-1.270874,-27.46588,-1.0,-1.0,-1.0,-0.4826719,1.028447,-0.1617299999999999,-0.1181049,0.7085051,0.08058088,2.759631,-32.11383,31.57
0,-0.06610107,-0.161972,0.9845734,0.6511134,-0.06610107,-0.161972,0.9845734,-33.105259999999994,-1.430206,-28.37242,2.991898,0.5537616,0.6571851,0.0,0.0,0.0,0.0,32.56435,-1.270874,-27.46588,-1.0,-1.0,-1.0,-0.4826719,1.028447,-0.1617299999999999,-0.1181049,0.7085051,0.08058088,2.759631,-32.11383,31.57
0,-1.0,-1.0,-1.0,0.1536568,0.0,0.0,0.0,-33.11986,-1.401505,-28.23987,-1.0,-1.0,-1.0,0.0,0.0,0.0,0.0,32.56435,-1.270874,-27.46588,-1.0,-1.0,-1.0,-0.482442,1.028224,-0.1619267999999999,-0.1174933,0.7088201999999999,0.08009469,2.759631,-32.11383,31.57
0,-1.0,-1.0,-1.0,0.1536568,0.0,0.0,0.0,-33.11986,-1.401505,-28.23987,-1.0,-1.0,-1.0,0.0,0.0,0.0,0.0,32.56435,-1.270874,-27.46588,-1.0,-1.0,-1.0,-0.482442,1.028224,-0.1619267999999999,-0.1174933,0.7088201999999999,0.08009469,2.759631,-32.11383,31.57
0,-1.0,-1.0,-1.0,0.1536568,0.0,0.0,0.0,-33.11986,-1.401505,-28.23987,-1.0,-1.0,-1.0,0.0,0.0,0.0,0.0,32.56435,-1.270874,-27.46588,-1.0,-1.0,-1.0,-0.482442,1.028224,-0.1619267999999999,-0.1174933,0.7088201999999999,0.08009469,2.759631,-32.11383,31.57
0,-1.0,-1.0,-1.0,0.0,0.0,0.0,0.0,-33.11986,-1.401505,-28.23987,-1.0,-1.0,-1.0,0.0,0.0,0.0,0.0,32.56435,-1.270874,-27.46588,-1.0,-1.0,-1.0,-0.4823483,1.027902,-0.1621505,-0.1168337,0.7092642,0.07912835,2.759631,-32.11383,31.57
0,-1.0,-1.0,-1.0,0.0,0.0,0.0,0.0,-33.11986,-1.401505,-28.23987,-1.0,-1.0,-1.0,0.0,0.0,0.0,0.0,32.56435,-1.270874,-27.46588,-1.0,-1.0,-1.0,-0.4823483,1.027902,-0.1621505,-0.1168337,0.7092642,0.07912835,2.759631,-32.11383,31.57
0,-1.0,-1.0,-1.0,0.0,0.0,0.0,0.0,-33.11986,-1.401505,-28.23987,-1.0,-1.0,-1.0,0.0,0.0,0.0,0.0,32.56435,-1.270874,-27.46588,-1.0,-1.0,-1.0,-0.4823483,1.027902,-0.1621505,-0.1168337,0.7092642,0.07912835,2.759631,-32.11383,31.57
0,-1.0,-1.0,-1.0,0.0,0.0,0.0,0.0,-33.11986,-1.401505,-28.23987,-1.0,-1.0,-1.0,0.0,0.0,0.0,0.0,32.56435,-1.270874,-27.46588,-1.0,-1.0,-1.0,-0.4820036,1.027444,-0.1624191,-0.1152134,0.7102282,0.07726848,2.759631,24.35217,31.57
0,-1.0,-1.0,-1.0,0.0,0.0,0.0,0.0,-33.11986,-1.401505,-28.23987,-1.0,-1.0,-1.0,0.0,0.0,0.0,0.0,32.56435,-1.270874,-27.46588,-1.0,-1.0,-1.0,-0.4820036,1.027444,-0.1624191,-0.1152134,0.7102282,0.07726848,2.759631,24.35217,31.57
0,-1.0,-1.0,-1.0,0.0,0.0,0.0,0.0,-33.11986,-1.401505,-28.23987,-1.0,-1.0,-1.0,0.0,0.0,0.0,0.0,32.56435,-1.270874,-27.46588,-1.0,-1.0,-1.0,-0.4820036,1.027444,-0.1624191,-0.1152134,0.7102282,0.07726848,2.759631,24.35217,31.57
0,-1.0,-1.0,-1.0,0.0,0.0,0.0,0.0,-33.11986,-1.401505,-28.23987,-1.0,-1.0,-1.0,0.0,0.0,0.0,0.0,32.56435,-1.270874,-27.46588,-1.0,-1.0,-1.0,-0.4818231,1.027115,-0.1626458999999999,-0.1143353,0.7108437,0.07598364,2.759631,24.35217,31.57
0,-1.0,-1.0,-1.0,0.0,0.0,0.0,0.0,-33.11986,-1.401505,-28.23987,-1.0,-1.0,-1.0,0.0,0.0,0.0,0.0,32.56435,-1.270874,-27.46588,-1.0,-1.0,-1.0,-0.4818231,1.027115,-0.1626458999999999,-0.1143353,0.7108437,0.07598364,2.759631,24.35217,31.57
0,-1.0,-1.0,-1.0,0.0,0.0,0.0,0.0,-33.11986,-1.401505,-28.23987,-1.0,-1.0,-1.0,0.0,0.0,0.0,0.0,32.56435,-1.270874,-27.46588,-1.0,-1.0,-1.0,-0.4818231,1.027115,-0.1626458999999999,-0.1143353,0.7108437,0.07598364,2.759631,24.35217,31.57
0,-1.0,-1.0,-1.0,0.07440538,0.0,0.0,0.0,-33.11986,-1.401505,-28.23987,-1.0,-1.0,-1.0,0.0,0.0,0.0,0.0,32.56435,-1.270874,-27.46588,-1.0,-1.0,-1.0,-0.4814876,1.0267700000000002,-0.1627187,-0.1130983,0.7114509,0.07435209,2.759631,24.35217,31.57
0,-1.0,-1.0,-1.0,0.07440538,0.0,0.0,0.0,-33.11986,-1.401505,-28.23987,-1.0,-1.0,-1.0,0.0,0.0,0.0,0.0,32.56435,-1.270874,-27.46588,-1.0,-1.0,-1.0,-0.4814876,1.0267700000000002,-0.1627187,-0.1130983,0.7114509,0.07435209,2.759631,24.35217,31.57
0,-1.0,-1.0,-1.0,0.07440538,0.0,0.0,0.0,-33.11986,-1.401505,-28.23987,-1.0,-1.0,-1.0,0.0,0.0,0.0,0.0,32.56435,-1.270874,-27.46588,-1.0,-1.0,-1.0,-0.4814876,1.0267700000000002,-0.1627187,-0.1130983,0.7114509,0.07435209,2.759631,24.35217,31.57
0,-0.02378845,-0.4286346,0.9031525,0.1641655,-0.02378845,-0.4286346,0.9031525,-32.94992,-3.001953,-28.81776,2.989761,0.5411505999999999,0.7644795,0.0,0.0,0.0,0.0,32.56435,-1.270874,-27.46588,-1.0,-1.0,-1.0,-0.4811789000000001,1.026368,-0.1628727999999999,-0.1116215,0.7119763000000001,0.07208456,2.759631,24.35217,31.57
0,-0.02378845,-0.4286346,0.9031525,0.1641655,-0.02378845,-0.4286346,0.9031525,-32.94992,-3.001953,-28.81776,2.989761,0.5411505999999999,0.7644795,0.0,0.0,0.0,0.0,32.56435,-1.270874,-27.46588,-1.0,-1.0,-1.0,-0.4811789000000001,1.026368,-0.1628727999999999,-0.1116215,0.7119763000000001,0.07208456,2.759631,24.35217,31.57
0,-0.02378845,-0.4286346,0.9031525,0.1641655,-0.02378845,-0.4286346,0.9031525,-32.94992,-3.001953,-28.81776,2.989761,0.5411505999999999,0.7644795,0.0,0.0,0.0,0.0,32.56435,-1.270874,-27.46588,-1.0,-1.0,-1.0,-0.4811789000000001,1.026368,-0.1628727999999999,-0.1116215,0.7119763000000001,0.07208456,2.759631,24.35217,31.57
0,-0.02325439,-0.4785614,0.8777313,0.2847248,-0.02325439,-0.4785614,0.8777313,-32.948170000000005,-2.570221,-28.66924,2.698654,0.5417624,0.7609239000000001,0.0,0.0,0.0,0.0,32.56435,-1.270874,-27.46588,-1.0,-1.0,-1.0,-0.4807611,1.0258120000000002,-0.1629625,-0.1098136,0.7123571,0.06932981,2.759631,24.35217,31.57
0,-0.02325439,-0.4785614,0.8777313,0.2847248,-0.02325439,-0.4785614,0.8777313,-32.948170000000005,-2.570221,-28.66924,2.698654,0.5417624,0.7609239000000001,0.0,0.0,0.0,0.0,32.56435,-1.270874,-27.46588,-1.0,-1.0,-1.0,-0.4807611,1.0258120000000002,-0.1629625,-0.1098136,0.7123571,0.06932981,2.759631,24.35217,31.57
0,-0.02325439,-0.4785614,0.8777313,0.2847248,-0.02325439,-0.4785614,0.8777313,-32.948170000000005,-2.570221,-28.66924,2.698654,0.5417624,0.7609239000000001,0.0,0.0,0.0,0.0,32.56435,-1.270874,-27.46588,-1.0,-1.0,-1.0,-0.4807611,1.0258120000000002,-0.1629625,-0.1098136,0.7123571,0.06932981,2.759631,24.35217,31.57
1,-0.02215576,-0.4675597999999999,0.883667,0.3400393,-0.02215576,-0.4675597999999999,0.883667,-32.931470000000004,-2.632736,-28.6842,2.605453,0.5409893,0.7610123000000001,0.0,0.0,0.0,0.0,32.56435,-1.270874,-27.46588,-1.0,-1.0,-1.0,-0.4803589,1.025208,-0.1630242999999999,-0.1075111,0.7128895000000001,0.06579296,2.759631,24.35217,31.57
1,-0.02215576,-0.4675597999999999,0.883667,0.3400393,-0.02215576,-0.4675597999999999,0.883667,-32.931470000000004,-2.632736,-28.6842,2.605453,0.5409893,0.7610123000000001,0.0,0.0,0.0,0.0,32.56435,-1.270874,-27.46588,-1.0,-1.0,-1.0,-0.4803589,1.025208,-0.1630242999999999,-0.1075111,0.7128895000000001,0.06579296,2.759631,24.35217,31.57
1,-0.02215576,-0.4675597999999999,0.883667,0.3400393,-0.02215576,-0.4675597999999999,0.883667,-32.931470000000004,-2.632736,-28.6842,2.605453,0.5409893,0.7610123000000001,0.0,0.0,0.0,0.0,32.56435,-1.270874,-27.46588,-1.0,-1.0,-1.0,-0.4803589,1.025208,-0.1630242999999999,-0.1075111,0.7128895000000001,0.06579296,2.759631,24.35217,31.57
1,-0.01957703,-0.4591675,0.8881226000000001,0.3648679,-0.01957703,-0.4591675,0.8881226000000001,-32.938309999999994,-2.6217040000000003,-28.68205,2.615707,0.5407603,0.7588391,0.0,0.0,0.0,0.0,32.56435,-1.270874,-27.46588,-1.0,-1.0,-1.0,-0.4798254,1.024289,-0.1631157999999999,-0.1045882,0.7133845999999999,0.06165729,2.759631,-0.7171783,31.57
1,-0.01957703,-0.4591675,0.8881226000000001,0.3648679,-0.01957703,-0.4591675,0.8881226000000001,-32.938309999999994,-2.6217040000000003,-28.68205,2.615707,0.5407603,0.7588391,0.0,0.0,0.0,0.0,32.56435,-1.270874,-27.46588,-1.0,-1.0,-1.0,-0.4798254,1.024289,-0.1631157999999999,-0.1045882,0.7133845999999999,0.06165729,2.759631,-0.7171783,31.57
1,-0.01957703,-0.4591675,0.8881226000000001,0.3648679,-0.01957703,-0.4591675,0.8881226000000001,-32.938309999999994,-2.6217040000000003,-28.68205,2.615707,0.5407603,0.7588391,0.0,0.0,0.0,0.0,32.56435,-1.270874,-27.46588,-1.0,-1.0,-1.0,-0.4798254,1.024289,-0.1631157999999999,-0.1045882,0.7133845999999999,0.06165729,2.759631,-0.7171783,31.57
1,-0.01721191,-0.4607544,0.8873443999999999,0.3729687,-0.01721191,-0.4607544,0.8873443999999999,-32.944379999999995,-2.601105,-28.66963,2.621674,0.5405566999999999,0.7583052,0.0,0.0,0.0,0.0,32.56435,-1.270874,-27.46588,-1.0,-1.0,-1.0,-0.4791451,1.023089,-0.1631527,-0.100404,0.7140261999999999,0.05618332,2.734006,-0.7171783,31.57
1,-0.01721191,-0.4607544,0.8873443999999999,0.3729687,-0.01721191,-0.4607544,0.8873443999999999,-32.944379999999995,-2.601105,-28.66963,2.621674,0.5405566999999999,0.7583052,0.0,0.0,0.0,0.0,32.56435,-1.270874,-27.46588,-1.0,-1.0,-1.0,-0.4791451,1.023089,-0.1631527,-0.100404,0.7140261999999999,0.05618332,2.734006,-0.7171783,31.57
1,-0.01721191,-0.4607544,0.8873443999999999,0.3729687,-0.01721191,-0.4607544,0.8873443999999999,-32.944379999999995,-2.601105,-28.66963,2.621674,0.5405566999999999,0.7583052,0.0,0.0,0.0,0.0,32.56435,-1.270874,-27.46588,-1.0,-1.0,-1.0,-0.4791451,1.023089,-0.1631527,-0.100404,0.7140261999999999,0.05618332,2.734006,-0.7171783,31.57
1,-0.01460266,-0.460434,0.887558,0.3562444,-0.01460266,-0.460434,0.887558,-32.94435,-2.596985,-28.66872,2.619675,0.540107,0.7580680000000001,0.0,0.0,0.0,0.0,32.56435,-1.270874,-27.46588,-1.0,-1.0,-1.0,-0.4791451,1.023089,-0.1631527,-0.100404,0.7140261999999999,0.05618332,2.734006,-0.7171783,31.57
1,-0.01460266,-0.460434,0.887558,0.3562444,-0.01460266,-0.460434,0.887558,-32.94435,-2.596985,-28.66872,2.619675,0.540107,0.7580680000000001,0.0,0.0,0.0,0.0,32.56435,-1.270874,-27.46588,-1.0,-1.0,-1.0,-0.4791451,1.023089,-0.1631527,-0.100404,0.7140261999999999,0.05618332,2.734006,-0.7171783,31.57
1,-0.01460266,-0.460434,0.887558,0.3562444,-0.01460266,-0.460434,0.887558,-32.94435,-2.596985,-28.66872,2.619675,0.540107,0.7580680000000001,0.0,0.0,0.0,0.0,32.56435,-1.270874,-27.46588,-1.0,-1.0,-1.0,-0.4791451,1.023089,-0.1631527,-0.100404,0.7140261999999999,0.05618332,2.734006,-0.7171783,31.57
1,-0.01115417,-0.4446869,0.8955994,0.3720712,-0.01115417,-0.4446869,0.8955994,-32.94577,-2.5554810000000003,-28.65807,2.594376,0.5395175999999999,0.753217,0.0,0.0,0.0,0.0,32.56435,-1.270874,-27.46588,-1.0,-1.0,-1.0,-0.4777079000000001,1.019826,-0.1628602,-0.08694102,0.7148865,0.03979146,2.734006,-0.7171783,31.57
1,-0.01115417,-0.4446869,0.8955994,0.3720712,-0.01115417,-0.4446869,0.8955994,-32.94577,-2.5554810000000003,-28.65807,2.594376,0.5395175999999999,0.753217,0.0,0.0,0.0,0.0,32.56435,-1.270874,-27.46588,-1.0,-1.0,-1.0,-0.4777079000000001,1.019826,-0.1628602,-0.08694102,0.7148865,0.03979146,2.734006,-0.7171783,31.57
1,-0.01115417,-0.4446869,0.8955994,0.3720712,-0.01115417,-0.4446869,0.8955994,-32.94577,-2.5554810000000003,-28.65807,2.594376,0.5395175999999999,0.753217,0.0,0.0,0.0,0.0,32.56435,-1.270874,-27.46588,-1.0,-1.0,-1.0,-0.4777079000000001,1.019826,-0.1628602,-0.08694102,0.7148865,0.03979146,2.734006,-0.7171783,31.57
1,-1.0,-1.0,-1.0,0.3792094,0.0,0.0,0.0,-32.94624,-2.534561,-28.64966,-1.0,-1.0,-1.0,0.0,0.0,0.0,0.0,32.56435,-1.270874,-27.46588,-1.0,-1.0,-1.0,-0.4777079000000001,1.019826,-0.1628602,-0.08694102,0.7148865,0.03979146,2.734006,-0.7171783,31.57
1,-1.0,-1.0,-1.0,0.3792094,0.0,0.0,0.0,-32.94624,-2.534561,-28.64966,-1.0,-1.0,-1.0,0.0,0.0,0.0,0.0,32.56435,-1.270874,-27.46588,-1.0,-1.0,-1.0,-0.4777079000000001,1.019826,-0.1628602,-0.08694102,0.7148865,0.03979146,2.734006,-0.7171783,31.57
1,-1.0,-1.0,-1.0,0.3792094,0.0,0.0,0.0,-32.94624,-2.534561,-28.64966,-1.0,-1.0,-1.0,0.0,0.0,0.0,0.0,32.56435,-1.270874,-27.46588,-1.0,-1.0,-1.0,-0.4777079000000001,1.019826,-0.1628602,-0.08694102,0.7148865,0.03979146,2.734006,-0.7171783,31.57
1,-0.05187988,-0.4387207,0.8971100000000001,0.3566994,-0.05187988,-0.4387207,0.8971100000000001,-32.91827,-2.296997,-28.5433,1.886536,0.5454938,0.7420386999999999,0.0,0.0,0.0,0.0,32.56435,-1.270874,-27.46588,-1.0,-1.0,-1.0,-0.4760335999999999,1.015433,-0.1620875,-0.06845201,0.7147475999999999,0.01855609,2.734006,-33.27915,31.57
1,-0.05187988,-0.4387207,0.8971100000000001,0.3566994,-0.05187988,-0.4387207,0.8971100000000001,-32.91827,-2.296997,-28.5433,1.886536,0.5454938,0.7420386999999999,0.0,0.0,0.0,0.0,32.56435,-1.270874,-27.46588,-1.0,-1.0,-1.0,-0.4760335999999999,1.015433,-0.1620875,-0.06845201,0.7147475999999999,0.01855609,2.734006,-33.27915,31.57
1,-0.05187988,-0.4387207,0.8971100000000001,0.3566994,-0.05187988,-0.4387207,0.8971100000000001,-32.91827,-2.296997,-28.5433,1.886536,0.5454938,0.7420386999999999,0.0,0.0,0.0,0.0,32.56435,-1.270874,-27.46588,-1.0,-1.0,-1.0,-0.4760335999999999,1.015433,-0.1620875,-0.06845201,0.7147475999999999,0.01855609,2.734006,-33.27915,31.57
1,-0.02270508,-0.3908997,0.9201508,0.3705284,-0.02270508,-0.3908997,0.9201508,-32.916470000000004,-2.23996,-28.50992,2.389465,0.5402768,0.7296621999999999,0.0,0.0,0.0,0.0,32.56435,-1.270874,-27.46588,-1.0,-1.0,-1.0,-0.4750027,1.013021,-0.1615948999999999,-0.05775313,0.7143440999999999,0.007167409,2.734006,-33.27915,31.57
1,-0.02270508,-0.3908997,0.9201508,0.3705284,-0.02270508,-0.3908997,0.9201508,-32.916470000000004,-2.23996,-28.50992,2.389465,0.5402768,0.7296621999999999,0.0,0.0,0.0,0.0,32.56435,-1.270874,-27.46588,-1.0,-1.0,-1.0,-0.4750027,1.013021,-0.1615948999999999,-0.05775313,0.7143440999999999,0.007167409,2.734006,-33.27915,31.57
1,-0.02270508,-0.3908997,0.9201508,0.3705284,-0.02270508,-0.3908997,0.9201508,-32.916470000000004,-2.23996,-28.50992,2.389465,0.5402768,0.7296621999999999,0.0,0.0,0.0,0.0,32.56435,-1.270874,-27.46588,-1.0,-1.0,-1.0,-0.4750027,1.013021,-0.1615948999999999,-0.05775313,0.7143440999999999,0.007167409,2.734006,-33.27915,31.57
1,-0.02270508,-0.3908997,0.9201508,0.3705284,-0.02270508,-0.3908997,0.9201508,-32.916470000000004,-2.23996,-28.50992,2.389465,0.5402768,0.7296621999999999,0.0,0.0,0.0,0.0,32.56435,-1.270874,-27.46588,-1.0,-1.0,-1.0,-0.4738640999999999,1.010433,-0.1611905,-0.04578263,0.7135986999999999,-0.005385639,2.734006,-33.27915,31.57
1,-0.02270508,-0.3908997,0.9201508,0.3705284,-0.02270508,-0.3908997,0.9201508,-32.916470000000004,-2.23996,-28.50992,2.389465,0.5402768,0.7296621999999999,0.0,0.0,0.0,0.0,32.56435,-1.270874,-27.46588,-1.0,-1.0,-1.0,-0.4738640999999999,1.010433,-0.1611905,-0.04578263,0.7135986999999999,-0.005385639,2.734006,-33.27915,31.57
1,-0.02270508,-0.3908997,0.9201508,0.3705284,-0.02270508,-0.3908997,0.9201508,-32.916470000000004,-2.23996,-28.50992,2.389465,0.5402768,0.7296621999999999,0.0,0.0,0.0,0.0,32.56435,-1.270874,-27.46588,-1.0,-1.0,-1.0,-0.4738640999999999,1.010433,-0.1611905,-0.04578263,0.7135986999999999,-0.005385639,2.734006,-33.27915,31.57
1,-0.02270508,-0.3908997,0.9201508,0.3705284,-0.02270508,-0.3908997,0.9201508,-32.916470000000004,-2.23996,-28.50992,2.389465,0.5402768,0.7296621999999999,0.0,0.0,0.0,0.0,32.56435,-1.270874,-27.46588,-1.0,-1.0,-1.0,-0.4726489,1.007511,-0.1607291,-0.03347432,0.7128638,-0.01867097,2.734006,-33.27915,31.57
1,-0.02270508,-0.3908997,0.9201508,0.3705284,-0.02270508,-0.3908997,0.9201508,-32.916470000000004,-2.23996,-28.50992,2.389465,0.5402768,0.7296621999999999,0.0,0.0,0.0,0.0,32.56435,-1.270874,-27.46588,-1.0,-1.0,-1.0,-0.4726489,1.007511,-0.1607291,-0.03347432,0.7128638,-0.01867097,2.734006,-33.27915,31.57
1,-0.02270508,-0.3908997,0.9201508,0.3705284,-0.02270508,-0.3908997,0.9201508,-32.916470000000004,-2.23996,-28.50992,2.389465,0.5402768,0.7296621999999999,0.0,0.0,0.0,0.0,32.56435,-1.270874,-27.46588,-1.0,-1.0,-1.0,-0.4726489,1.007511,-0.1607291,-0.03347432,0.7128638,-0.01867097,2.734006,-33.27915,31.57
1,-1.0,-1.0,-1.0,0.0,0.0,0.0,0.0,-32.90617,-2.274063,-28.5291,-1.0,-1.0,-1.0,0.0,0.0,0.0,0.0,32.56435,-1.270874,-27.46588,-1.0,-1.0,-1.0,-0.4713426999999999,1.004149,-0.1602939,-0.02058976,0.7122396,-0.0323226,2.734006,-55.38521,31.57
1,-1.0,-1.0,-1.0,0.0,0.0,0.0,0.0,-32.90617,-2.274063,-28.5291,-1.0,-1.0,-1.0,0.0,0.0,0.0,0.0,32.56435,-1.270874,-27.46588,-1.0,-1.0,-1.0,-0.4713426999999999,1.004149,-0.1602939,-0.02058976,0.7122396,-0.0323226,2.734006,-55.38521,31.57
1,-1.0,-1.0,-1.0,0.0,0.0,0.0,0.0,-32.90617,-2.274063,-28.5291,-1.0,-1.0,-1.0,0.0,0.0,0.0,0.0,32.56435,-1.270874,-27.46588,-1.0,-1.0,-1.0,-0.4713426999999999,1.004149,-0.1602939,-0.02058976,0.7122396,-0.0323226,2.734006,-55.38521,31.57
1,-1.0,-1.0,-1.0,0.0,0.0,0.0,0.0,-32.90617,-2.274063,-28.5291,-1.0,-1.0,-1.0,0.0,0.0,0.0,0.0,32.56435,-1.270874,-27.46588,-1.0,-1.0,-1.0,-0.4698198,1.000624,-0.1598704,-0.007138765,0.7114815999999999,-0.04557426,2.734006,-55.38521,31.57
1,-1.0,-1.0,-1.0,0.0,0.0,0.0,0.0,-32.90617,-2.274063,-28.5291,-1.0,-1.0,-1.0,0.0,0.0,0.0,0.0,32.56435,-1.270874,-27.46588,-1.0,-1.0,-1.0,-0.4698198,1.000624,-0.1598704,-0.007138765,0.7114815999999999,-0.04557426,2.734006,-55.38521,31.57
1,-1.0,-1.0,-1.0,0.0,0.0,0.0,0.0,-32.90617,-2.274063,-28.5291,-1.0,-1.0,-1.0,0.0,0.0,0.0,0.0,32.56435,-1.270874,-27.46588,-1.0,-1.0,-1.0,-0.4698198,1.000624,-0.1598704,-0.007138765,0.7114815999999999,-0.04557426,2.734006,-55.38521,31.57
1,-1.0,-1.0,-1.0,0.0,0.0,0.0,0.0,-32.90617,-2.274063,-28.5291,-1.0,-1.0,-1.0,0.0,0.0,0.0,0.0,32.56435,-1.270874,-27.46588,-1.0,-1.0,-1.0,-0.4680594,0.9971572,-0.1596029,0.005948971,0.711028,-0.05820348,2.734006,-55.38521,31.57
1,-1.0,-1.0,-1.0,0.0,0.0,0.0,0.0,-32.90617,-2.274063,-28.5291,-1.0,-1.0,-1.0,0.0,0.0,0.0,0.0,32.56435,-1.270874,-27.46588,-1.0,-1.0,-1.0,-0.4680594,0.9971572,-0.1596029,0.005948971,0.711028,-0.05820348,2.734006,-55.38521,31.57
1,-1.0,-1.0,-1.0,0.0,0.0,0.0,0.0,-32.90617,-2.274063,-28.5291,-1.0,-1.0,-1.0,0.0,0.0,0.0,0.0,32.56435,-1.270874,-27.46588,-1.0,-1.0,-1.0,-0.4680594,0.9971572,-0.1596029,0.005948971,0.711028,-0.05820348,2.734006,-55.38521,31.57
1,-1.0,-1.0,-1.0,0.0,0.0,0.0,0.0,-32.90617,-2.274063,-28.5291,-1.0,0.5039585,0.7871136999999999,0.0,0.0,0.0,0.0,32.56435,-1.270874,-27.46588,-1.0,-1.0,-1.0,-0.4660143,0.993762,-0.1594615,0.01899557,0.7104291,-0.0692909,2.734006,-55.38521,31.57
1,-1.0,-1.0,-1.0,0.0,0.0,0.0,0.0,-32.90617,-2.274063,-28.5291,-1.0,0.5039585,0.7871136999999999,0.0,0.0,0.0,0.0,32.56435,-1.270874,-27.46588,-1.0,-1.0,-1.0,-0.4660143,0.993762,-0.1594615,0.01899557,0.7104291,-0.0692909,2.734006,-55.38521,31.57
1,-1.0,-1.0,-1.0,0.0,0.0,0.0,0.0,-32.90617,-2.274063,-28.5291,-1.0,0.5039585,0.7871136999999999,0.0,0.0,0.0,0.0,32.56435,-1.270874,-27.46588,-1.0,-1.0,-1.0,-0.4660143,0.993762,-0.1594615,0.01899557,0.7104291,-0.0692909,2.734006,-55.38521,31.57
1,-1.0,-1.0,-1.0,0.261665,0.0,0.0,0.0,-32.489909999999995,-2.549164,-28.61081,-1.0,0.5180838,0.7307347,0.2852908,0.0,0.0,0.0,32.56435,-1.270874,-27.46588,-1.0,-1.0,-1.0,-0.4637088,0.99032,-0.1593046,0.03172924,0.7102419,-0.07913702,2.734006,-55.38521,31.57
1,-1.0,-1.0,-1.0,0.261665,0.0,0.0,0.0,-32.489909999999995,-2.549164,-28.61081,-1.0,0.5180838,0.7307347,0.2852908,0.0,0.0,0.0,32.56435,-1.270874,-27.46588,-1.0,-1.0,-1.0,-0.4637088,0.99032,-0.1593046,0.03172924,0.7102419,-0.07913702,2.734006,-55.38521,31.57
1,-1.0,-1.0,-1.0,0.261665,0.0,0.0,0.0,-32.489909999999995,-2.549164,-28.61081,-1.0,0.5180838,0.7307347,0.2852908,0.0,0.0,0.0,32.56435,-1.270874,-27.46588,-1.0,-1.0,-1.0,-0.4637088,0.99032,-0.1593046,0.03172924,0.7102419,-0.07913702,2.734006,-55.38521,31.57
1,-1.0,-1.0,-1.0,0.6154953000000001,0.0,0.0,0.0,-32.496140000000004,-2.375412,-28.55171,-1.0,0.5112906,0.7212156999999999,0.6191193,0.0,0.0,0.0,32.56435,-1.270874,-27.46588,-1.0,-1.0,-1.0,-0.4613264,0.9871116,-0.1591042,0.04462142,0.7099073,-0.08805573,2.734006,-55.38521,31.57
1,-1.0,-1.0,-1.0,0.6154953000000001,0.0,0.0,0.0,-32.496140000000004,-2.375412,-28.55171,-1.0,0.5112906,0.7212156999999999,0.6191193,0.0,0.0,0.0,32.56435,-1.270874,-27.46588,-1.0,-1.0,-1.0,-0.4613264,0.9871116,-0.1591042,0.04462142,0.7099073,-0.08805573,2.734006,-55.38521,31.57
1,-1.0,-1.0,-1.0,0.6154953000000001,0.0,0.0,0.0,-32.496140000000004,-2.375412,-28.55171,-1.0,0.5112906,0.7212156999999999,0.6191193,0.0,0.0,0.0,32.56435,-1.270874,-27.46588,-1.0,-1.0,-1.0,-0.4613264,0.9871116,-0.1591042,0.04462142,0.7099073,-0.08805573,2.734006,-55.38521,31.57
1,0.03604126,-0.2706299,0.9619904,0.7119189,0.03604126,-0.2706299,0.9619904,-32.49779,-2.313995,-28.53021,2.57312,0.5157845999999999,0.7087988000000001,0.7409779000000001,0.0,0.0,0.0,32.56435,-1.270874,-27.46588,-1.0,-1.0,-1.0,-0.4587545,0.9840307,-0.1588937999999999,0.05621951,0.7095498,-0.09595608,2.734006,9.679308,31.57
1,0.03604126,-0.2706299,0.9619904,0.7119189,0.03604126,-0.2706299,0.9619904,-32.49779,-2.313995,-28.53021,2.57312,0.5157845999999999,0.7087988000000001,0.7409779000000001,0.0,0.0,0.0,32.56435,-1.270874,-27.46588,-1.0,-1.0,-1.0,-0.4587545,0.9840307,-0.1588937999999999,0.05621951,0.7095498,-0.09595608,2.734006,9.679308,31.57
1,0.03604126,-0.2706299,0.9619904,0.7119189,0.03604126,-0.2706299,0.9619904,-32.49779,-2.313995,-28.53021,2.57312,0.5157845999999999,0.7087988000000001,0.7409779000000001,0.0,0.0,0.0,32.56435,-1.270874,-27.46588,-1.0,-1.0,-1.0,-0.4587545,0.9840307,-0.1588937999999999,0.05621951,0.7095498,-0.09595608,2.734006,9.679308,31.57
1,0.02478027,-0.2710114,0.9622498,0.7721331,0.02478027,-0.2710114,0.9622498,-32.48189,-2.202896,-28.5058,2.510452,0.5171654,0.7047733,0.7956364,0.0,0.0,0.0,32.56435,-1.270874,-27.46588,-1.0,-1.0,-1.0,-0.4587545,0.9840307,-0.1588937999999999,0.05621951,0.7095498,-0.09595608,2.734006,9.679308,31.57
1,0.02478027,-0.2710114,0.9622498,0.7721331,0.02478027,-0.2710114,0.9622498,-32.48189,-2.202896,-28.5058,2.510452,0.5171654,0.7047733,0.7956364,0.0,0.0,0.0,32.56435,-1.270874,-27.46588,-1.0,-1.0,-1.0,-0.4587545,0.9840307,-0.1588937999999999,0.05621951,0.7095498,-0.09595608,2.734006,9.679308,31.57
1,0.02478027,-0.2710114,0.9622498,0.7721331,0.02478027,-0.2710114,0.9622498,-32.48189,-2.202896,-28.5058,2.510452,0.5171654,0.7047733,0.7956364,0.0,0.0,0.0,32.56435,-1.270874,-27.46588,-1.0,-1.0,-1.0,-0.4587545,0.9840307,-0.1588937999999999,0.05621951,0.7095498,-0.09595608,2.734006,9.679308,31.57
1,0.1109923999999999,-0.2985992,0.9478912,0.753839,0.1109923999999999,-0.2985992,0.9478912,-32.45477,-2.06456,-28.49136,1.860199,0.5012338,0.7053718000000001,0.8427372999999999,0.0,0.0,0.0,32.56435,-1.270874,-27.46588,-1.0,-1.0,-1.0,-0.4530633,0.9794872,-0.1584227999999999,0.07287051,0.7071688,-0.1074072,2.734006,9.679308,31.57
1,0.1109923999999999,-0.2985992,0.9478912,0.753839,0.1109923999999999,-0.2985992,0.9478912,-32.45477,-2.06456,-28.49136,1.860199,0.5012338,0.7053718000000001,0.8427372999999999,0.0,0.0,0.0,32.56435,-1.270874,-27.46588,-1.0,-1.0,-1.0,-0.4530633,0.9794872,-0.1584227999999999,0.07287051,0.7071688,-0.1074072,2.734006,9.679308,31.57
1,0.1109923999999999,-0.2985992,0.9478912,0.753839,0.1109923999999999,-0.2985992,0.9478912,-32.45477,-2.06456,-28.49136,1.860199,0.5012338,0.7053718000000001,0.8427372999999999,0.0,0.0,0.0,32.56435,-1.270874,-27.46588,-1.0,-1.0,-1.0,-0.4530633,0.9794872,-0.1584227999999999,0.07287051,0.7071688,-0.1074072,2.734006,9.679308,31.57
1,0.04043579,-0.2342682,0.9713135,0.7934551999999999,0.04043579,-0.2342682,0.9713135,-32.40187,-1.983292,-28.46281,2.316696,0.5117077,0.6897583,0.8458545,0.0,0.0,0.0,32.56435,-1.270874,-27.46588,-1.0,-1.0,-1.0,-0.4499220999999999,0.97828,-0.1578695,0.0756184999999999,0.704767,-0.1105636,2.734006,9.679308,31.57
1,0.04043579,-0.2342682,0.9713135,0.7934551999999999,0.04043579,-0.2342682,0.9713135,-32.40187,-1.983292,-28.46281,2.316696,0.5117077,0.6897583,0.8458545,0.0,0.0,0.0,32.56435,-1.270874,-27.46588,-1.0,-1.0,-1.0,-0.4499220999999999,0.97828,-0.1578695,0.0756184999999999,0.704767,-0.1105636,2.734006,9.679308,31.57
1,0.04043579,-0.2342682,0.9713135,0.7934551999999999,0.04043579,-0.2342682,0.9713135,-32.40187,-1.983292,-28.46281,2.316696,0.5117077,0.6897583,0.8458545,0.0,0.0,0.0,32.56435,-1.270874,-27.46588,-1.0,-1.0,-1.0,-0.4499220999999999,0.97828,-0.1578695,0.0756184999999999,0.704767,-0.1105636,2.734006,9.679308,31.57
1,0.1826934999999999,-0.06886292,0.9807434000000002,0.8090871000000001,0.1826934999999999,-0.06886292,0.9807434000000002,-31.343090000000004,-1.471878,-28.51488,2.430847,0.451292,0.6430697,0.8110334,0.0,0.0,0.0,32.56435,-1.270874,-27.46588,-1.0,-1.0,-1.0,-0.4469576,0.9775318,-0.1571195,0.07635544,0.7009251999999999,-0.1123658,2.734006,3.702616,31.57
1,0.1826934999999999,-0.06886292,0.9807434000000002,0.8090871000000001,0.1826934999999999,-0.06886292,0.9807434000000002,-31.343090000000004,-1.471878,-28.51488,2.430847,0.451292,0.6430697,0.8110334,0.0,0.0,0.0,32.56435,-1.270874,-27.46588,-1.0,-1.0,-1.0,-0.4469576,0.9775318,-0.1571195,0.07635544,0.7009251999999999,-0.1123658,2.734006,3.702616,31.57
1,0.1826934999999999,-0.06886292,0.9807434000000002,0.8090871000000001,0.1826934999999999,-0.06886292,0.9807434000000002,-31.343090000000004,-1.471878,-28.51488,2.430847,0.451292,0.6430697,0.8110334,0.0,0.0,0.0,32.56435,-1.270874,-27.46588,-1.0,-1.0,-1.0,-0.4469576,0.9775318,-0.1571195,0.07635544,0.7009251999999999,-0.1123658,2.734006,3.702616,31.57
1,0.1826934999999999,-0.06886292,0.9807434000000002,0.8090871000000001,0.1826934999999999,-0.06886292,0.9807434000000002,-31.343090000000004,-1.471878,-28.51488,2.430847,0.451292,0.6430697,0.8110334,0.0,0.0,0.0,32.56435,-1.270874,-27.46588,-1.0,-1.0,-1.0,-0.4439967999999999,0.9773938,-0.1559257,0.07512776,0.6947826,-0.1122003999999999,2.734006,3.702616,31.57
1,0.1826934999999999,-0.06886292,0.9807434000000002,0.8090871000000001,0.1826934999999999,-0.06886292,0.9807434000000002,-31.343090000000004,-1.471878,-28.51488,2.430847,0.451292,0.6430697,0.8110334,0.0,0.0,0.0,32.56435,-1.270874,-27.46588,-1.0,-1.0,-1.0,-0.4439967999999999,0.9773938,-0.1559257,0.07512776,0.6947826,-0.1122003999999999,2.734006,3.702616,31.57
1,0.1826934999999999,-0.06886292,0.9807434000000002,0.8090871000000001,0.1826934999999999,-0.06886292,0.9807434000000002,-31.343090000000004,-1.471878,-28.51488,2.430847,0.451292,0.6430697,0.8110334,0.0,0.0,0.0,32.56435,-1.270874,-27.46588,-1.0,-1.0,-1.0,-0.4439967999999999,0.9773938,-0.1559257,0.07512776,0.6947826,-0.1122003999999999,2.734006,3.702616,31.57
1,0.1826934999999999,-0.06886292,0.9807434000000002,0.8090871000000001,0.1826934999999999,-0.06886292,0.9807434000000002,-31.343090000000004,-1.471878,-28.51488,2.430847,0.451292,0.6430697,0.8110334,0.0,0.0,0.0,32.56435,-1.270874,-27.46588,-1.0,-1.0,-1.0,-0.441376,0.977342,-0.1542938999999999,0.07297592,0.686281,-0.1122712999999999,2.734006,3.702616,31.57
1,0.1826934999999999,-0.06886292,0.9807434000000002,0.8090871000000001,0.1826934999999999,-0.06886292,0.9807434000000002,-31.343090000000004,-1.471878,-28.51488,2.430847,0.451292,0.6430697,0.8110334,0.0,0.0,0.0,32.56435,-1.270874,-27.46588,-1.0,-1.0,-1.0,-0.441376,0.977342,-0.1542938999999999,0.07297592,0.686281,-0.1122712999999999,2.734006,3.702616,31.57
1,0.1826934999999999,-0.06886292,0.9807434000000002,0.8090871000000001,0.1826934999999999,-0.06886292,0.9807434000000002,-31.343090000000004,-1.471878,-28.51488,2.430847,0.451292,0.6430697,0.8110334,0.0,0.0,0.0,32.56435,-1.270874,-27.46588,-1.0,-1.0,-1.0,-0.441376,0.977342,-0.1542938999999999,0.07297592,0.686281,-0.1122712999999999,2.734006,3.702616,31.57
1,0.3152618,-0.1348724,0.9393616,0.786998,0.3152618,-0.1348724,0.9393616,-30.8615,-1.3553620000000002,-28.60393,1.795364,0.4112472,0.6532462,0.7318011999999999,0.0,0.0,0.0,32.56435,-1.270874,-27.46588,-1.0,-1.0,-1.0,-0.441376,0.977342,-0.1542938999999999,0.07297592,0.686281,-0.1122712999999999,2.734006,3.702616,31.57
1,0.3152618,-0.1348724,0.9393616,0.786998,0.3152618,-0.1348724,0.9393616,-30.8615,-1.3553620000000002,-28.60393,1.795364,0.4112472,0.6532462,0.7318011999999999,0.0,0.0,0.0,32.56435,-1.270874,-27.46588,-1.0,-1.0,-1.0,-0.441376,0.977342,-0.1542938999999999,0.07297592,0.686281,-0.1122712999999999,2.734006,3.702616,31.57
1,0.3152618,-0.1348724,0.9393616,0.786998,0.3152618,-0.1348724,0.9393616,-30.8615,-1.3553620000000002,-28.60393,1.795364,0.4112472,0.6532462,0.7318011999999999,0.0,0.0,0.0,32.56435,-1.270874,-27.46588,-1.0,-1.0,-1.0,-0.441376,0.977342,-0.1542938999999999,0.07297592,0.686281,-0.1122712999999999,2.734006,3.702616,31.57
1,0.318222,-0.07289124,0.9451904,0.8413931999999998,0.318222,-0.07289124,0.9451904,-30.90767,-1.488922,-28.65726,2.250427,0.4125375,0.6472589,0.7255455,0.0,0.0,0.0,32.56435,-1.270874,-27.46588,-1.0,-1.0,-1.0,-0.4377531,0.9775035,-0.1498328,0.0680292,0.6641964,-0.115329,2.734006,3.702616,31.57
1,0.318222,-0.07289124,0.9451904,0.8413931999999998,0.318222,-0.07289124,0.9451904,-30.90767,-1.488922,-28.65726,2.250427,0.4125375,0.6472589,0.7255455,0.0,0.0,0.0,32.56435,-1.270874,-27.46588,-1.0,-1.0,-1.0,-0.4377531,0.9775035,-0.1498328,0.0680292,0.6641964,-0.115329,2.734006,3.702616,31.57
1,0.318222,-0.07289124,0.9451904,0.8413931999999998,0.318222,-0.07289124,0.9451904,-30.90767,-1.488922,-28.65726,2.250427,0.4125375,0.6472589,0.7255455,0.0,0.0,0.0,32.56435,-1.270874,-27.46588,-1.0,-1.0,-1.0,-0.4377531,0.9775035,-0.1498328,0.0680292,0.6641964,-0.115329,2.734006,3.702616,31.57
1,0.2428741,-0.1386414,0.960083,0.8684940000000001,0.2432708999999999,-0.1375579999999999,0.960144,-31.0321,-1.5115809999999998,-28.55286,1.582184,0.4296342000000001,0.657431,0.7771033,0.1833038,-0.2866974,0.9403076,34.22345,-1.4086459999999998,-27.66777,3.055313,0.4140573,0.6731429,-0.4377531,0.9775035,-0.1498328,0.0680292,0.6641964,-0.115329,2.734006,3.702616,31.57
1,0.2428741,-0.1386414,0.960083,0.8684940000000001,0.2432708999999999,-0.1375579999999999,0.960144,-31.0321,-1.5115809999999998,-28.55286,1.582184,0.4296342000000001,0.657431,0.7771033,0.1833038,-0.2866974,0.9403076,34.22345,-1.4086459999999998,-27.66777,3.055313,0.4140573,0.6731429,-0.4377531,0.9775035,-0.1498328,0.0680292,0.6641964,-0.115329,2.734006,3.702616,31.57
1,0.2428741,-0.1386414,0.960083,0.8684940000000001,0.2432708999999999,-0.1375579999999999,0.960144,-31.0321,-1.5115809999999998,-28.55286,1.582184,0.4296342000000001,0.657431,0.7771033,0.1833038,-0.2866974,0.9403076,34.22345,-1.4086459999999998,-27.66777,3.055313,0.4140573,0.6731429,-0.4377531,0.9775035,-0.1498328,0.0680292,0.6641964,-0.115329,2.734006,3.702616,31.57
1,0.2268523999999999,-0.07116699,0.9713135,0.8773293,0.2268523999999999,-0.07116699,0.9713135,-31.26022,-1.474564,-28.54433,2.449799,0.440791,0.6442865,0.8020970000000001,0.0,0.0,0.0,34.0593,-1.408722,-27.92105,-1.0,-1.0,-1.0,-0.4356412999999999,0.9781557,-0.1454043,0.06174257,0.6394979000000001,-0.1157366,2.734006,-22.61657,31.57
1,0.2268523999999999,-0.07116699,0.9713135,0.8773293,0.2268523999999999,-0.07116699,0.9713135,-31.26022,-1.474564,-28.54433,2.449799,0.440791,0.6442865,0.8020970000000001,0.0,0.0,0.0,34.0593,-1.408722,-27.92105,-1.0,-1.0,-1.0,-0.4356412999999999,0.9781557,-0.1454043,0.06174257,0.6394979000000001,-0.1157366,2.734006,-22.61657,31.57
1,0.2268523999999999,-0.07116699,0.9713135,0.8773293,0.2268523999999999,-0.07116699,0.9713135,-31.26022,-1.474564,-28.54433,2.449799,0.440791,0.6442865,0.8020970000000001,0.0,0.0,0.0,34.0593,-1.408722,-27.92105,-1.0,-1.0,-1.0,-0.4356412999999999,0.9781557,-0.1454043,0.06174257,0.6394979000000001,-0.1157366,2.734006,-22.61657,31.57
1,0.2203369,-0.07722473,0.9723511,0.9119813,0.2203369,-0.07722473,0.9723511,-31.28665,-1.474014,-28.53642,2.482635,0.442852,0.6452299,0.8724485999999999,0.0,0.0,0.0,34.0593,-1.408722,-27.92105,-1.0,-1.0,-1.0,-0.4351498,0.9786595,-0.1431186,0.05803821,0.6269043000000001,-0.1161186999999999,2.734006,-22.61657,31.57
1,0.2203369,-0.07722473,0.9723511,0.9119813,0.2203369,-0.07722473,0.9723511,-31.28665,-1.474014,-28.53642,2.482635,0.442852,0.6452299,0.8724485999999999,0.0,0.0,0.0,34.0593,-1.408722,-27.92105,-1.0,-1.0,-1.0,-0.4351498,0.9786595,-0.1431186,0.05803821,0.6269043000000001,-0.1161186999999999,2.734006,-22.61657,31.57
1,0.2203369,-0.07722473,0.9723511,0.9119813,0.2203369,-0.07722473,0.9723511,-31.28665,-1.474014,-28.53642,2.482635,0.442852,0.6452299,0.8724485999999999,0.0,0.0,0.0,34.0593,-1.408722,-27.92105,-1.0,-1.0,-1.0,-0.4351498,0.9786595,-0.1431186,0.05803821,0.6269043000000001,-0.1161186999999999,2.734006,-22.61657,31.57
1,0.2358246,0.02053833,0.9715729,0.8686072,0.2358246,0.02053833,0.9715729,-31.097,-1.33223,-28.59605,2.464417,0.4336223,0.6237479,0.8037626,0.0,0.0,0.0,34.0593,-1.408722,-27.92105,-1.0,-1.0,-1.0,-0.4351840999999999,0.9793484,-0.1409548,0.05368149,0.6143001,-0.1152162,2.734006,-22.61657,31.57
1,0.2358246,0.02053833,0.9715729,0.8686072,0.2358246,0.02053833,0.9715729,-31.097,-1.33223,-28.59605,2.464417,0.4336223,0.6237479,0.8037626,0.0,0.0,0.0,34.0593,-1.408722,-27.92105,-1.0,-1.0,-1.0,-0.4351840999999999,0.9793484,-0.1409548,0.05368149,0.6143001,-0.1152162,2.734006,-22.61657,31.57
1,0.2358246,0.02053833,0.9715729,0.8686072,0.2358246,0.02053833,0.9715729,-31.097,-1.33223,-28.59605,2.464417,0.4336223,0.6237479,0.8037626,0.0,0.0,0.0,34.0593,-1.408722,-27.92105,-1.0,-1.0,-1.0,-0.4351840999999999,0.9793484,-0.1409548,0.05368149,0.6143001,-0.1152162,2.734006,-22.61657,31.57
1,0.2372893999999999,-0.02206421,0.9711761,0.871784,0.2372893999999999,-0.02206421,0.9711761,-31.20836,-1.350143,-28.57321,2.300171,0.4370879,0.6315656999999999,0.7883076,0.0,0.0,0.0,34.0593,-1.408722,-27.92105,-1.0,-1.0,-1.0,-0.4351840999999999,0.9793484,-0.1409548,0.05368149,0.6143001,-0.1152162,2.734006,-22.61657,31.57
1,0.2372893999999999,-0.02206421,0.9711761,0.871784,0.2372893999999999,-0.02206421,0.9711761,-31.20836,-1.350143,-28.57321,2.300171,0.4370879,0.6315656999999999,0.7883076,0.0,0.0,0.0,34.0593,-1.408722,-27.92105,-1.0,-1.0,-1.0,-0.4351840999999999,0.9793484,-0.1409548,0.05368149,0.6143001,-0.1152162,2.734006,-22.61657,31.57
1,0.2372893999999999,-0.02206421,0.9711761,0.871784,0.2372893999999999,-0.02206421,0.9711761,-31.20836,-1.350143,-28.57321,2.300171,0.4370879,0.6315656999999999,0.7883076,0.0,0.0,0.0,34.0593,-1.408722,-27.92105,-1.0,-1.0,-1.0,-0.4351840999999999,0.9793484,-0.1409548,0.05368149,0.6143001,-0.1152162,2.734006,-22.61657,31.57
2,0.1676025,-0.009292603,0.9857941,0.8403446,0.1676025,-0.009292603,0.9857941,-31.37064,-1.324356,-28.70631,2.029099,0.4546205,0.6289682,0.8671146000000001,0.0,0.0,0.0,34.0593,-1.408722,-27.92105,-1.0,-1.0,-1.0,-0.4361812,0.9811532,-0.1366224999999999,0.04417984,0.5882925,-0.1124912,2.734006,-22.61657,31.57
2,0.1676025,-0.009292603,0.9857941,0.8403446,0.1676025,-0.009292603,0.9857941,-31.37064,-1.324356,-28.70631,2.029099,0.4546205,0.6289682,0.8671146000000001,0.0,0.0,0.0,34.0593,-1.408722,-27.92105,-1.0,-1.0,-1.0,-0.4361812,0.9811532,-0.1366224999999999,0.04417984,0.5882925,-0.1124912,2.734006,-22.61657,31.57
2,0.1676025,-0.009292603,0.9857941,0.8403446,0.1676025,-0.009292603,0.9857941,-31.37064,-1.324356,-28.70631,2.029099,0.4546205,0.6289682,0.8671146000000001,0.0,0.0,0.0,34.0593,-1.408722,-27.92105,-1.0,-1.0,-1.0,-0.4361812,0.9811532,-0.1366224999999999,0.04417984,0.5882925,-0.1124912,2.734006,-22.61657,31.57
2,0.1712798999999999,-0.01586914,0.9850922,0.8710100000000001,0.1712798999999999,-0.01586914,0.9850922,-31.59102,-1.252869,-28.939090000000004,2.348801,0.4615824,0.6304114000000001,0.8858739,0.0,0.0,0.0,34.0593,-1.408722,-27.92105,-1.0,-1.0,-1.0,-0.4373468,0.9824373,-0.1343867,0.0393576,0.5748628,-0.109377,2.734006,8.881428,31.57
2,0.1712798999999999,-0.01586914,0.9850922,0.8710100000000001,0.1712798999999999,-0.01586914,0.9850922,-31.59102,-1.252869,-28.939090000000004,2.348801,0.4615824,0.6304114000000001,0.8858739,0.0,0.0,0.0,34.0593,-1.408722,-27.92105,-1.0,-1.0,-1.0,-0.4373468,0.9824373,-0.1343867,0.0393576,0.5748628,-0.109377,2.734006,8.881428,31.57
2,0.1712798999999999,-0.01586914,0.9850922,0.8710100000000001,0.1712798999999999,-0.01586914,0.9850922,-31.59102,-1.252869,-28.939090000000004,2.348801,0.4615824,0.6304114000000001,0.8858739,0.0,0.0,0.0,34.0593,-1.408722,-27.92105,-1.0,-1.0,-1.0,-0.4373468,0.9824373,-0.1343867,0.0393576,0.5748628,-0.109377,2.734006,8.881428,31.57
2,0.1712798999999999,-0.01586914,0.9850922,0.8710100000000001,0.1712798999999999,-0.01586914,0.9850922,-31.59102,-1.252869,-28.939090000000004,2.348801,0.4615824,0.6304114000000001,0.8858739,0.0,0.0,0.0,34.0593,-1.408722,-27.92105,-1.0,-1.0,-1.0,-0.4387109999999999,0.9837686,-0.1320966,0.03377953,0.5610498,-0.1066742,2.734006,8.881428,31.57
2,0.1712798999999999,-0.01586914,0.9850922,0.8710100000000001,0.1712798999999999,-0.01586914,0.9850922,-31.59102,-1.252869,-28.939090000000004,2.348801,0.4615824,0.6304114000000001,0.8858739,0.0,0.0,0.0,34.0593,-1.408722,-27.92105,-1.0,-1.0,-1.0,-0.4387109999999999,0.9837686,-0.1320966,0.03377953,0.5610498,-0.1066742,2.734006,8.881428,31.57
2,0.1712798999999999,-0.01586914,0.9850922,0.8710100000000001,0.1712798999999999,-0.01586914,0.9850922,-31.59102,-1.252869,-28.939090000000004,2.348801,0.4615824,0.6304114000000001,0.8858739,0.0,0.0,0.0,34.0593,-1.408722,-27.92105,-1.0,-1.0,-1.0,-0.4387109999999999,0.9837686,-0.1320966,0.03377953,0.5610498,-0.1066742,2.734006,8.881428,31.57
2,0.1712798999999999,-0.01586914,0.9850922,0.8710100000000001,0.1712798999999999,-0.01586914,0.9850922,-31.59102,-1.252869,-28.939090000000004,2.348801,0.4615824,0.6304114000000001,0.8858739,0.0,0.0,0.0,34.0593,-1.408722,-27.92105,-1.0,-1.0,-1.0,-0.4403487,0.9852349,-0.1298041999999999,0.02837774,0.5463772,-0.1027481,2.734006,8.881428,31.57
2,0.1712798999999999,-0.01586914,0.9850922,0.8710100000000001,0.1712798999999999,-0.01586914,0.9850922,-31.59102,-1.252869,-28.939090000000004,2.348801,0.4615824,0.6304114000000001,0.8858739,0.0,0.0,0.0,34.0593,-1.408722,-27.92105,-1.0,-1.0,-1.0,-0.4403487,0.9852349,-0.1298041999999999,0.02837774,0.5463772,-0.1027481,2.734006,8.881428,31.57
2,0.1712798999999999,-0.01586914,0.9850922,0.8710100000000001,0.1712798999999999,-0.01586914,0.9850922,-31.59102,-1.252869,-28.939090000000004,2.348801,0.4615824,0.6304114000000001,0.8858739,0.0,0.0,0.0,34.0593,-1.408722,-27.92105,-1.0,-1.0,-1.0,-0.4403487,0.9852349,-0.1298041999999999,0.02837774,0.5463772,-0.1027481,2.734006,8.881428,31.57
2,0.05465698,-0.01344299,0.9984131,0.8569608,0.05465698,-0.01344299,0.9984131,-31.987170000000003,-1.127014,-29.39935,2.0270080000000004,0.4953548,0.6297104,0.9230466,0.0,0.0,0.0,34.0593,-1.408722,-27.92105,-1.0,-1.0,-1.0,-0.4422221999999999,0.9871621,-0.1269779,0.02075016,0.5289415,-0.09803341,2.734006,8.881428,31.57
2,0.05465698,-0.01344299,0.9984131,0.8569608,0.05465698,-0.01344299,0.9984131,-31.987170000000003,-1.127014,-29.39935,2.0270080000000004,0.4953548,0.6297104,0.9230466,0.0,0.0,0.0,34.0593,-1.408722,-27.92105,-1.0,-1.0,-1.0,-0.4422221999999999,0.9871621,-0.1269779,0.02075016,0.5289415,-0.09803341,2.734006,8.881428,31.57
2,0.05465698,-0.01344299,0.9984131,0.8569608,0.05465698,-0.01344299,0.9984131,-31.987170000000003,-1.127014,-29.39935,2.0270080000000004,0.4953548,0.6297104,0.9230466,0.0,0.0,0.0,34.0593,-1.408722,-27.92105,-1.0,-1.0,-1.0,-0.4422221999999999,0.9871621,-0.1269779,0.02075016,0.5289415,-0.09803341,2.734006,8.881428,31.57
2,-0.04336548,-0.07398987,0.9963074,0.8471112,-0.04336548,-0.07398987,0.9963074,-32.11833,-1.149414,-29.36877,1.709198,0.5169683,0.6409541999999999,0.9595236,0.0,0.0,0.0,34.0593,-1.408722,-27.92105,-1.0,-1.0,-1.0,-0.4446529999999999,0.9890857,-0.123697,0.01267593,0.5080150999999999,-0.09368299,2.734006,8.881428,31.57
2,-0.04336548,-0.07398987,0.9963074,0.8471112,-0.04336548,-0.07398987,0.9963074,-32.11833,-1.149414,-29.36877,1.709198,0.5169683,0.6409541999999999,0.9595236,0.0,0.0,0.0,34.0593,-1.408722,-27.92105,-1.0,-1.0,-1.0,-0.4446529999999999,0.9890857,-0.123697,0.01267593,0.5080150999999999,-0.09368299,2.734006,8.881428,31.57
2,-0.04336548,-0.07398987,0.9963074,0.8471112,-0.04336548,-0.07398987,0.9963074,-32.11833,-1.149414,-29.36877,1.709198,0.5169683,0.6409541999999999,0.9595236,0.0,0.0,0.0,34.0593,-1.408722,-27.92105,-1.0,-1.0,-1.0,-0.4446529999999999,0.9890857,-0.123697,0.01267593,0.5080150999999999,-0.09368299,2.734006,8.881428,31.57
2,0.1170196999999999,-0.05354309,0.9916687,0.7916615,0.1170196999999999,-0.05354309,0.9916687,-31.18515,-1.103226,-29.0378,1.83577,0.4571292,0.6323006999999999,0.8751174999999999,0.0,0.0,0.0,34.0593,-1.408722,-27.92105,-1.0,-1.0,-1.0,-0.447633,0.990931,-0.1199718,0.003964937,0.4841044,-0.0910948,2.734006,24.52061,31.57
2,0.1170196999999999,-0.05354309,0.9916687,0.7916615,0.1170196999999999,-0.05354309,0.9916687,-31.18515,-1.103226,-29.0378,1.83577,0.4571292,0.6323006999999999,0.8751174999999999,0.0,0.0,0.0,34.0593,-1.408722,-27.92105,-1.0,-1.0,-1.0,-0.447633,0.990931,-0.1199718,0.003964937,0.4841044,-0.0910948,2.734006,24.52061,31.57
2,0.1170196999999999,-0.05354309,0.9916687,0.7916615,0.1170196999999999,-0.05354309,0.9916687,-31.18515,-1.103226,-29.0378,1.83577,0.4571292,0.6323006999999999,0.8751174999999999,0.0,0.0,0.0,34.0593,-1.408722,-27.92105,-1.0,-1.0,-1.0,-0.447633,0.990931,-0.1199718,0.003964937,0.4841044,-0.0910948,2.734006,24.52061,31.57
2,0.2603149,-0.09150696,0.9611664,0.8025607,0.2535706,-0.09468079,0.9626617,-30.91095,-1.142075,-29.10675,2.12149,0.4239031,0.6430852,0.7664884,0.3842773,-0.03068542,0.922699,34.269490000000005,-1.319824,-27.92325,2.858109,0.3767235,0.6282239000000001,-0.4509497999999999,0.9928436,-0.1161321,-0.005611253,0.4587845999999999,-0.08919331,2.734006,24.52061,31.57
2,0.2603149,-0.09150696,0.9611664,0.8025607,0.2535706,-0.09468079,0.9626617,-30.91095,-1.142075,-29.10675,2.12149,0.4239031,0.6430852,0.7664884,0.3842773,-0.03068542,0.922699,34.269490000000005,-1.319824,-27.92325,2.858109,0.3767235,0.6282239000000001,-0.4509497999999999,0.9928436,-0.1161321,-0.005611253,0.4587845999999999,-0.08919331,2.734006,24.52061,31.57
2,0.2603149,-0.09150696,0.9611664,0.8025607,0.2535706,-0.09468079,0.9626617,-30.91095,-1.142075,-29.10675,2.12149,0.4239031,0.6430852,0.7664884,0.3842773,-0.03068542,0.922699,34.269490000000005,-1.319824,-27.92325,2.858109,0.3767235,0.6282239000000001,-0.4509497999999999,0.9928436,-0.1161321,-0.005611253,0.4587845999999999,-0.08919331,2.734006,24.52061,31.57
2,0.1949767999999999,-0.0579071,0.9790802,0.8317796999999999,0.1949767999999999,-0.0579071,0.9790802,-31.22017,-1.185776,-29.11226,2.3631290000000003,0.4448521,0.6375648,0.8304893,0.0,0.0,0.0,34.269490000000005,-1.319824,-27.92325,-1.0,-1.0,-1.0,-0.4544585,0.994575,-0.1124839999999999,-0.01380151,0.4332492,-0.08753106,2.734006,24.52061,31.57
2,0.1949767999999999,-0.0579071,0.9790802,0.8317796999999999,0.1949767999999999,-0.0579071,0.9790802,-31.22017,-1.185776,-29.11226,2.3631290000000003,0.4448521,0.6375648,0.8304893,0.0,0.0,0.0,34.269490000000005,-1.319824,-27.92325,-1.0,-1.0,-1.0,-0.4544585,0.994575,-0.1124839999999999,-0.01380151,0.4332492,-0.08753106,2.734006,24.52061,31.57
2,0.1949767999999999,-0.0579071,0.9790802,0.8317796999999999,0.1949767999999999,-0.0579071,0.9790802,-31.22017,-1.185776,-29.11226,2.3631290000000003,0.4448521,0.6375648,0.8304893,0.0,0.0,0.0,34.269490000000005,-1.319824,-27.92325,-1.0,-1.0,-1.0,-0.4544585,0.994575,-0.1124839999999999,-0.01380151,0.4332492,-0.08753106,2.734006,24.52061,31.57
2,0.1479492,-0.0255127,0.9886627,0.8137581,0.1479492,-0.02546692,0.9886627,-31.50688,-1.195221,-29.1884,2.343491,0.462789,0.6325418,0.8998255,0.1481627999999999,-0.02827454,0.9885559000000002,33.83365,-1.5568540000000002,-27.68437,3.056015,0.4340898,0.6303890000000001,-0.457975,0.9962434,-0.109024,-0.02062736,0.4074691,-0.08418251,2.734006,24.52061,31.57
2,0.1479492,-0.0255127,0.9886627,0.8137581,0.1479492,-0.02546692,0.9886627,-31.50688,-1.195221,-29.1884,2.343491,0.462789,0.6325418,0.8998255,0.1481627999999999,-0.02827454,0.9885559000000002,33.83365,-1.5568540000000002,-27.68437,3.056015,0.4340898,0.6303890000000001,-0.457975,0.9962434,-0.109024,-0.02062736,0.4074691,-0.08418251,2.734006,24.52061,31.57
2,0.1479492,-0.0255127,0.9886627,0.8137581,0.1479492,-0.02546692,0.9886627,-31.50688,-1.195221,-29.1884,2.343491,0.462789,0.6325418,0.8998255,0.1481627999999999,-0.02827454,0.9885559000000002,33.83365,-1.5568540000000002,-27.68437,3.056015,0.4340898,0.6303890000000001,-0.457975,0.9962434,-0.109024,-0.02062736,0.4074691,-0.08418251,2.734006,24.52061,31.57
2,0.1479492,-0.0255127,0.9886627,0.8137581,0.1479492,-0.02546692,0.9886627,-31.50688,-1.195221,-29.1884,2.343491,0.462789,0.6325418,0.8998255,0.1481627999999999,-0.02827454,0.9885559000000002,33.83365,-1.5568540000000002,-27.68437,3.056015,0.4340898,0.6303890000000001,-0.4618199,0.9975603,-0.1059383,-0.02562488,0.3826732,-0.08097873,2.734006,24.52061,31.57
2,0.1479492,-0.0255127,0.9886627,0.8137581,0.1479492,-0.02546692,0.9886627,-31.50688,-1.195221,-29.1884,2.343491,0.462789,0.6325418,0.8998255,0.1481627999999999,-0.02827454,0.9885559000000002,33.83365,-1.5568540000000002,-27.68437,3.056015,0.4340898,0.6303890000000001,-0.4618199,0.9975603,-0.1059383,-0.02562488,0.3826732,-0.08097873,2.734006,24.52061,31.57
2,0.1479492,-0.0255127,0.9886627,0.8137581,0.1479492,-0.02546692,0.9886627,-31.50688,-1.195221,-29.1884,2.343491,0.462789,0.6325418,0.8998255,0.1481627999999999,-0.02827454,0.9885559000000002,33.83365,-1.5568540000000002,-27.68437,3.056015,0.4340898,0.6303890000000001,-0.4618199,0.9975603,-0.1059383,-0.02562488,0.3826732,-0.08097873,2.734006,24.52061,31.57
2,0.1479492,-0.0255127,0.9886627,0.8137581,0.1479492,-0.02546692,0.9886627,-31.50688,-1.195221,-29.1884,2.343491,0.462789,0.6325418,0.8998255,0.1481627999999999,-0.02827454,0.9885559000000002,33.83365,-1.5568540000000002,-27.68437,3.056015,0.4340898,0.6303890000000001,-0.4654045,0.9984916,-0.1031266,-0.02920467,0.360686,-0.07804256,2.734006,1.688332,31.57
2,0.1479492,-0.0255127,0.9886627,0.8137581,0.1479492,-0.02546692,0.9886627,-31.50688,-1.195221,-29.1884,2.343491,0.462789,0.6325418,0.8998255,0.1481627999999999,-0.02827454,0.9885559000000002,33.83365,-1.5568540000000002,-27.68437,3.056015,0.4340898,0.6303890000000001,-0.4654045,0.9984916,-0.1031266,-0.02920467,0.360686,-0.07804256,2.734006,1.688332,31.57
2,0.1479492,-0.0255127,0.9886627,0.8137581,0.1479492,-0.02546692,0.9886627,-31.50688,-1.195221,-29.1884,2.343491,0.462789,0.6325418,0.8998255,0.1481627999999999,-0.02827454,0.9885559000000002,33.83365,-1.5568540000000002,-27.68437,3.056015,0.4340898,0.6303890000000001,-0.4654045,0.9984916,-0.1031266,-0.02920467,0.360686,-0.07804256,2.734006,1.688332,31.57
2,0.1034088,-0.08058167,0.9913635,0.8137581,0.1009369,-0.07928467,0.9917145,-31.65231,-1.279648,-28.94585,2.200348,0.4758935999999999,0.642275,0.8998255,0.1637573,-0.1122741999999999,0.9800873,33.69073,-1.54126,-27.64955,2.809189,0.4358456,0.6449451999999999,-0.4717345,1.000043,-0.09823583,-0.03406024,0.3239634,-0.07190522,2.734006,1.688332,31.57
2,0.1034088,-0.08058167,0.9913635,0.8137581,0.1009369,-0.07928467,0.9917145,-31.65231,-1.279648,-28.94585,2.200348,0.4758935999999999,0.642275,0.8998255,0.1637573,-0.1122741999999999,0.9800873,33.69073,-1.54126,-27.64955,2.809189,0.4358456,0.6449451999999999,-0.4717345,1.000043,-0.09823583,-0.03406024,0.3239634,-0.07190522,2.734006,1.688332,31.57
2,0.1034088,-0.08058167,0.9913635,0.8137581,0.1009369,-0.07928467,0.9917145,-31.65231,-1.279648,-28.94585,2.200348,0.4758935999999999,0.642275,0.8998255,0.1637573,-0.1122741999999999,0.9800873,33.69073,-1.54126,-27.64955,2.809189,0.4358456,0.6449451999999999,-0.4717345,1.000043,-0.09823583,-0.03406024,0.3239634,-0.07190522,2.734006,1.688332,31.57
2,-0.1198273,-0.0877533,0.9889069,0.8372151,-0.1198273,-0.0877533,0.9889069,-32.92735,-1.522797,-28.79442,2.0410310000000003,0.557487,0.6509923000000001,0.9443557,0.0,0.0,0.0,32.62466,-1.35379,-28.18423,-1.0,-1.0,-1.0,-0.4740688,1.000574,-0.09626375,-0.03490742,0.3109369999999999,-0.0680786999999999,2.734006,1.688332,31.57
2,-0.1198273,-0.0877533,0.9889069,0.8372151,-0.1198273,-0.0877533,0.9889069,-32.92735,-1.522797,-28.79442,2.0410310000000003,0.557487,0.6509923000000001,0.9443557,0.0,0.0,0.0,32.62466,-1.35379,-28.18423,-1.0,-1.0,-1.0,-0.4740688,1.000574,-0.09626375,-0.03490742,0.3109369999999999,-0.0680786999999999,2.734006,1.688332,31.57
2,-0.1198273,-0.0877533,0.9889069,0.8372151,-0.1198273,-0.0877533,0.9889069,-32.92735,-1.522797,-28.79442,2.0410310000000003,0.557487,0.6509923000000001,0.9443557,0.0,0.0,0.0,32.62466,-1.35379,-28.18423,-1.0,-1.0,-1.0,-0.4740688,1.000574,-0.09626375,-0.03490742,0.3109369999999999,-0.0680786999999999,2.734006,1.688332,31.57
2,0.01573181,-0.08926392,0.9958801,0.8771118,-0.003189087,-0.09230042,0.9957123,-32.267140000000005,-1.565384,-28.90401,1.79184,0.5147982,0.6536443000000001,0.9263029,0.07325745,-0.07981873,0.9941101,32.94072,-1.621765,-27.91881,2.821503,0.4774195,0.6439328000000001,-0.4760645999999999,1.000947,-0.09434506,-0.03527536,0.30015,-0.06290531,2.734006,-29.10036,31.57
2,0.01573181,-0.08926392,0.9958801,0.8771118,-0.003189087,-0.09230042,0.9957123,-32.267140000000005,-1.565384,-28.90401,1.79184,0.5147982,0.6536443000000001,0.9263029,0.07325745,-0.07981873,0.9941101,32.94072,-1.621765,-27.91881,2.821503,0.4774195,0.6439328000000001,-0.4760645999999999,1.000947,-0.09434506,-0.03527536,0.30015,-0.06290531,2.734006,-29.10036,31.57
2,0.01573181,-0.08926392,0.9958801,0.8771118,-0.003189087,-0.09230042,0.9957123,-32.267140000000005,-1.565384,-28.90401,1.79184,0.5147982,0.6536443000000001,0.9263029,0.07325745,-0.07981873,0.9941101,32.94072,-1.621765,-27.91881,2.821503,0.4774195,0.6439328000000001,-0.4760645999999999,1.000947,-0.09434506,-0.03527536,0.30015,-0.06290531,2.734006,-29.10036,31.57
2,0.2137451,-0.2189025999999999,0.9520416,0.774617,0.2137451,-0.2189025999999999,0.9520416,-31.15457,-1.664825,-29.14099,1.934204,0.4389782999999999,0.6839946,0.7506821,0.0,0.0,0.0,33.29201,-1.231323,-29.32213,-1.0,-1.0,-1.0,-0.4789428,1.001317,-0.09106234,-0.03459891,0.2845486,-0.05460638,2.71735,-29.10036,31.57
2,0.2137451,-0.2189025999999999,0.9520416,0.774617,0.2137451,-0.2189025999999999,0.9520416,-31.15457,-1.664825,-29.14099,1.934204,0.4389782999999999,0.6839946,0.7506821,0.0,0.0,0.0,33.29201,-1.231323,-29.32213,-1.0,-1.0,-1.0,-0.4789428,1.001317,-0.09106234,-0.03459891,0.2845486,-0.05460638,2.71735,-29.10036,31.57
2,0.2137451,-0.2189025999999999,0.9520416,0.774617,0.2137451,-0.2189025999999999,0.9520416,-31.15457,-1.664825,-29.14099,1.934204,0.4389782999999999,0.6839946,0.7506821,0.0,0.0,0.0,33.29201,-1.231323,-29.32213,-1.0,-1.0,-1.0,-0.4789428,1.001317,-0.09106234,-0.03459891,0.2845486,-0.05460638,2.71735,-29.10036,31.57
2,0.1759644,-0.1999664,0.9638671999999998,0.7657094,0.1759644,-0.1999664,0.9638671999999998,-31.36375,-1.682755,-29.0993,1.7478790000000002,0.4526840999999999,0.6801634,0.8023518,0.0,0.0,0.0,34.00121,-1.891998,-28.054920000000003,-1.0,-1.0,-1.0,-0.4799725,1.0014379999999998,-0.08969986,-0.03443075,0.2792825999999999,-0.05232418,2.71735,-29.10036,31.57
2,0.1759644,-0.1999664,0.9638671999999998,0.7657094,0.1759644,-0.1999664,0.9638671999999998,-31.36375,-1.682755,-29.0993,1.7478790000000002,0.4526840999999999,0.6801634,0.8023518,0.0,0.0,0.0,34.00121,-1.891998,-28.054920000000003,-1.0,-1.0,-1.0,-0.4799725,1.0014379999999998,-0.08969986,-0.03443075,0.2792825999999999,-0.05232418,2.71735,-29.10036,31.57
2,0.1759644,-0.1999664,0.9638671999999998,0.7657094,0.1759644,-0.1999664,0.9638671999999998,-31.36375,-1.682755,-29.0993,1.7478790000000002,0.4526840999999999,0.6801634,0.8023518,0.0,0.0,0.0,34.00121,-1.891998,-28.054920000000003,-1.0,-1.0,-1.0,-0.4799725,1.0014379999999998,-0.08969986,-0.03443075,0.2792825999999999,-0.05232418,2.71735,-29.10036,31.57
2,0.1786346,-0.2089844,0.9614563,0.7941155,0.1786346,-0.2089844,0.9614563,-31.3894,-1.6818240000000002,-29.09727,1.6876369999999998,0.4530604,0.6818384,0.8132305999999999,0.0,0.0,0.0,34.00121,-1.891998,-28.054920000000003,-1.0,-1.0,-1.0,-0.4799725,1.0014379999999998,-0.08969986,-0.03443075,0.2792825999999999,-0.05232418,2.71735,-29.10036,31.57
2,0.1786346,-0.2089844,0.9614563,0.7941155,0.1786346,-0.2089844,0.9614563,-31.3894,-1.6818240000000002,-29.09727,1.6876369999999998,0.4530604,0.6818384,0.8132305999999999,0.0,0.0,0.0,34.00121,-1.891998,-28.054920000000003,-1.0,-1.0,-1.0,-0.4799725,1.0014379999999998,-0.08969986,-0.03443075,0.2792825999999999,-0.05232418,2.71735,-29.10036,31.57
2,0.1786346,-0.2089844,0.9614563,0.7941155,0.1786346,-0.2089844,0.9614563,-31.3894,-1.6818240000000002,-29.09727,1.6876369999999998,0.4530604,0.6818384,0.8132305999999999,0.0,0.0,0.0,34.00121,-1.891998,-28.054920000000003,-1.0,-1.0,-1.0,-0.4799725,1.0014379999999998,-0.08969986,-0.03443075,0.2792825999999999,-0.05232418,2.71735,-29.10036,31.57
2,0.1662445,-0.2091064,0.9636536,0.7893299,0.1661987,-0.209137,0.9636536,-31.43286,-1.678406,-29.09235,1.647507,0.456714,0.6815817,0.8430573,0.3020935,-0.1361084,0.9434967,33.97322,-1.865219,-28.0325,3.157562,0.4023347,0.6653143,-0.4815537,1.001568,-0.08727163,-0.0346828,0.2679084,-0.04829929,2.71735,-29.10036,31.57
2,0.1662445,-0.2091064,0.9636536,0.7893299,0.1661987,-0.209137,0.9636536,-31.43286,-1.678406,-29.09235,1.647507,0.456714,0.6815817,0.8430573,0.3020935,-0.1361084,0.9434967,33.97322,-1.865219,-28.0325,3.157562,0.4023347,0.6653143,-0.4815537,1.001568,-0.08727163,-0.0346828,0.2679084,-0.04829929,2.71735,-29.10036,31.57
2,0.1662445,-0.2091064,0.9636536,0.7893299,0.1661987,-0.209137,0.9636536,-31.43286,-1.678406,-29.09235,1.647507,0.456714,0.6815817,0.8430573,0.3020935,-0.1361084,0.9434967,33.97322,-1.865219,-28.0325,3.157562,0.4023347,0.6653143,-0.4815537,1.001568,-0.08727163,-0.0346828,0.2679084,-0.04829929,2.71735,-29.10036,31.57
2,0.1662445,-0.2091064,0.9636536,0.7893299,0.1661987,-0.209137,0.9636536,-31.43286,-1.678406,-29.09235,1.647507,0.456714,0.6815817,0.8430573,0.3020935,-0.1361084,0.9434967,33.97322,-1.865219,-28.0325,3.157562,0.4023347,0.6653143,-0.4821935,1.001858,-0.08625469,-0.0358176,0.2628277,-0.0478745999999999,2.71735,-29.10036,31.59
2,0.1662445,-0.2091064,0.9636536,0.7893299,0.1661987,-0.209137,0.9636536,-31.43286,-1.678406,-29.09235,1.647507,0.456714,0.6815817,0.8430573,0.3020935,-0.1361084,0.9434967,33.97322,-1.865219,-28.0325,3.157562,0.4023347,0.6653143,-0.4821935,1.001858,-0.08625469,-0.0358176,0.2628277,-0.0478745999999999,2.71735,-29.10036,31.59
2,0.1662445,-0.2091064,0.9636536,0.7893299,0.1661987,-0.209137,0.9636536,-31.43286,-1.678406,-29.09235,1.647507,0.456714,0.6815817,0.8430573,0.3020935,-0.1361084,0.9434967,33.97322,-1.865219,-28.0325,3.157562,0.4023347,0.6653143,-0.4821935,1.001858,-0.08625469,-0.0358176,0.2628277,-0.0478745999999999,2.71735,-29.10036,31.59
2,0.1662445,-0.2091064,0.9636536,0.7893299,0.1661987,-0.209137,0.9636536,-31.43286,-1.678406,-29.09235,1.647507,0.456714,0.6815817,0.8430573,0.3020935,-0.1361084,0.9434967,33.97322,-1.865219,-28.0325,3.157562,0.4023347,0.6653143,-0.4827979999999999,1.002271,-0.08544809,-0.03782053,0.2563027,-0.04781387,2.71735,23.42203,31.59
2,0.1662445,-0.2091064,0.9636536,0.7893299,0.1661987,-0.209137,0.9636536,-31.43286,-1.678406,-29.09235,1.647507,0.456714,0.6815817,0.8430573,0.3020935,-0.1361084,0.9434967,33.97322,-1.865219,-28.0325,3.157562,0.4023347,0.6653143,-0.4827979999999999,1.002271,-0.08544809,-0.03782053,0.2563027,-0.04781387,2.71735,23.42203,31.59
2,0.1662445,-0.2091064,0.9636536,0.7893299,0.1661987,-0.209137,0.9636536,-31.43286,-1.678406,-29.09235,1.647507,0.456714,0.6815817,0.8430573,0.3020935,-0.1361084,0.9434967,33.97322,-1.865219,-28.0325,3.157562,0.4023347,0.6653143,-0.4827979999999999,1.002271,-0.08544809,-0.03782053,0.2563027,-0.04781387,2.71735,23.42203,31.59
2,0.1530609,-0.206665,0.9663544,0.8017542,0.1530609,-0.206665,0.9663544,-31.68056,-1.6588900000000002,-29.0571,1.790863,0.4675467,0.6800406,0.8714132,0.0,0.0,0.0,33.9137,-1.856735,-28.02771,-1.0,-1.0,-1.0,-0.483329,1.002702,-0.08465445,-0.03902815,0.2501284,-0.0482620999999999,2.71735,23.42203,31.59
2,0.1530609,-0.206665,0.9663544,0.8017542,0.1530609,-0.206665,0.9663544,-31.68056,-1.6588900000000002,-29.0571,1.790863,0.4675467,0.6800406,0.8714132,0.0,0.0,0.0,33.9137,-1.856735,-28.02771,-1.0,-1.0,-1.0,-0.483329,1.002702,-0.08465445,-0.03902815,0.2501284,-0.0482620999999999,2.71735,23.42203,31.59
2,0.1530609,-0.206665,0.9663544,0.8017542,0.1530609,-0.206665,0.9663544,-31.68056,-1.6588900000000002,-29.0571,1.790863,0.4675467,0.6800406,0.8714132,0.0,0.0,0.0,33.9137,-1.856735,-28.02771,-1.0,-1.0,-1.0,-0.483329,1.002702,-0.08465445,-0.03902815,0.2501284,-0.0482620999999999,2.71735,23.42203,31.59
2,0.1484222,-0.1799316,0.9724121,0.8221940000000001,0.1483765,-0.1801605,0.9723663,-31.70866,-1.658066,-29.05544,2.000885,0.4694135,0.6750368,0.8805291,0.0,0.0,0.0,33.635740000000006,-1.811508,-27.91267,-1.0,-1.0,-1.0,-0.4840508,1.003232,-0.08403715,-0.04152437,0.2425521,-0.04805448,2.71735,23.42203,31.59
2,0.1484222,-0.1799316,0.9724121,0.8221940000000001,0.1483765,-0.1801605,0.9723663,-31.70866,-1.658066,-29.05544,2.000885,0.4694135,0.6750368,0.8805291,0.0,0.0,0.0,33.635740000000006,-1.811508,-27.91267,-1.0,-1.0,-1.0,-0.4840508,1.003232,-0.08403715,-0.04152437,0.2425521,-0.04805448,2.71735,23.42203,31.59
2,0.1484222,-0.1799316,0.9724121,0.8221940000000001,0.1483765,-0.1801605,0.9723663,-31.70866,-1.658066,-29.05544,2.000885,0.4694135,0.6750368,0.8805291,0.0,0.0,0.0,33.635740000000006,-1.811508,-27.91267,-1.0,-1.0,-1.0,-0.4840508,1.003232,-0.08403715,-0.04152437,0.2425521,-0.04805448,2.71735,23.42203,31.59
2,0.1484222,-0.1799316,0.9724121,0.8221940000000001,0.1483765,-0.1801605,0.9723663,-31.70866,-1.658066,-29.05544,2.000885,0.4694135,0.6750368,0.8805291,0.0,0.0,0.0,33.635740000000006,-1.811508,-27.91267,-1.0,-1.0,-1.0,-0.4848402,1.004077,-0.08351484,-0.04482126,0.2337359,-0.04612126,2.71735,23.42203,31.59
2,0.1484222,-0.1799316,0.9724121,0.8221940000000001,0.1483765,-0.1801605,0.9723663,-31.70866,-1.658066,-29.05544,2.000885,0.4694135,0.6750368,0.8805291,0.0,0.0,0.0,33.635740000000006,-1.811508,-27.91267,-1.0,-1.0,-1.0,-0.4848402,1.004077,-0.08351484,-0.04482126,0.2337359,-0.04612126,2.71735,23.42203,31.59
2,0.1484222,-0.1799316,0.9724121,0.8221940000000001,0.1483765,-0.1801605,0.9723663,-31.70866,-1.658066,-29.05544,2.000885,0.4694135,0.6750368,0.8805291,0.0,0.0,0.0,33.635740000000006,-1.811508,-27.91267,-1.0,-1.0,-1.0,-0.4848402,1.004077,-0.08351484,-0.04482126,0.2337359,-0.04612126,2.71735,23.42203,31.59
2,0.1347351,-0.1808319,0.9742279,0.8232151,0.1346892999999999,-0.181076,0.9741974,-31.71535,-1.654907,-29.05475,2.022583,0.4720435999999999,0.6750031,0.8812636,0.0,0.0,0.0,33.635740000000006,-1.811508,-27.91267,-1.0,-1.0,-1.0,-0.48583,1.005174,-0.08270356,-0.04840792,0.2227392,-0.04377885,2.71735,1.414078,31.59
2,0.1347351,-0.1808319,0.9742279,0.8232151,0.1346892999999999,-0.181076,0.9741974,-31.71535,-1.654907,-29.05475,2.022583,0.4720435999999999,0.6750031,0.8812636,0.0,0.0,0.0,33.635740000000006,-1.811508,-27.91267,-1.0,-1.0,-1.0,-0.48583,1.005174,-0.08270356,-0.04840792,0.2227392,-0.04377885,2.71735,1.414078,31.59
2,0.1347351,-0.1808319,0.9742279,0.8232151,0.1346892999999999,-0.181076,0.9741974,-31.71535,-1.654907,-29.05475,2.022583,0.4720435999999999,0.6750031,0.8812636,0.0,0.0,0.0,33.635740000000006,-1.811508,-27.91267,-1.0,-1.0,-1.0,-0.48583,1.005174,-0.08270356,-0.04840792,0.2227392,-0.04377885,2.71735,1.414078,31.59
2,0.2438812,-0.1301726999999999,0.9610138,0.7528679,0.2362518,-0.1240081999999999,0.9637299,-31.25887,-1.358109,-29.10361,2.446426,0.4389807,0.6558189,0.8295341,0.3176422,-0.1901092999999999,0.9289398,33.92093,-1.546066,-27.92155,2.648209,0.4005029,0.6640505,-0.4872462,1.006509,-0.08203444,-0.05237812,0.2082427999999999,-0.03993901,2.71735,1.414078,31.59
2,0.2438812,-0.1301726999999999,0.9610138,0.7528679,0.2362518,-0.1240081999999999,0.9637299,-31.25887,-1.358109,-29.10361,2.446426,0.4389807,0.6558189,0.8295341,0.3176422,-0.1901092999999999,0.9289398,33.92093,-1.546066,-27.92155,2.648209,0.4005029,0.6640505,-0.4872462,1.006509,-0.08203444,-0.05237812,0.2082427999999999,-0.03993901,2.71735,1.414078,31.59
2,0.2438812,-0.1301726999999999,0.9610138,0.7528679,0.2362518,-0.1240081999999999,0.9637299,-31.25887,-1.358109,-29.10361,2.446426,0.4389807,0.6558189,0.8295341,0.3176422,-0.1901092999999999,0.9289398,33.92093,-1.546066,-27.92155,2.648209,0.4005029,0.6640505,-0.4872462,1.006509,-0.08203444,-0.05237812,0.2082427999999999,-0.03993901,2.71735,1.414078,31.59
2,-1.0,-1.0,-1.0,0.7526428000000001,0.0,0.0,0.0,-30.53256,-0.9130096,-29.22424,-1.0,-1.0,-1.0,0.7376984999999999,0.0,0.0,0.0,34.65248,-1.138489,-28.243270000000003,-1.0,-1.0,-1.0,-0.4891232,1.007923,-0.08136958,-0.05715785,0.1911691,-0.03722604,2.71735,1.414078,31.59
2,-1.0,-1.0,-1.0,0.7526428000000001,0.0,0.0,0.0,-30.53256,-0.9130096,-29.22424,-1.0,-1.0,-1.0,0.7376984999999999,0.0,0.0,0.0,34.65248,-1.138489,-28.243270000000003,-1.0,-1.0,-1.0,-0.4891232,1.007923,-0.08136958,-0.05715785,0.1911691,-0.03722604,2.71735,1.414078,31.59
2,-1.0,-1.0,-1.0,0.7526428000000001,0.0,0.0,0.0,-30.53256,-0.9130096,-29.22424,-1.0,-1.0,-1.0,0.7376984999999999,0.0,0.0,0.0,34.65248,-1.138489,-28.243270000000003,-1.0,-1.0,-1.0,-0.4891232,1.007923,-0.08136958,-0.05715785,0.1911691,-0.03722604,2.71735,1.414078,31.59
3,0.3316192999999999,-0.1153563999999999,0.9363251,0.8422728,0.3316192999999999,-0.1153563999999999,0.9363251,-30.80901,-1.079956,-29.15192,2.120132,0.4065627999999999,0.6463597,0.723371,0.0,0.0,0.0,34.65248,-1.138489,-28.243270000000003,-1.0,-1.0,-1.0,-0.4912688,1.008905,-0.0809471,-0.06105395,0.1720378,-0.03555412,2.71735,1.414078,31.59
3,0.3316192999999999,-0.1153563999999999,0.9363251,0.8422728,0.3316192999999999,-0.1153563999999999,0.9363251,-30.80901,-1.079956,-29.15192,2.120132,0.4065627999999999,0.6463597,0.723371,0.0,0.0,0.0,34.65248,-1.138489,-28.243270000000003,-1.0,-1.0,-1.0,-0.4912688,1.008905,-0.0809471,-0.06105395,0.1720378,-0.03555412,2.71735,1.414078,31.59
3,0.3316192999999999,-0.1153563999999999,0.9363251,0.8422728,0.3316192999999999,-0.1153563999999999,0.9363251,-30.80901,-1.079956,-29.15192,2.120132,0.4065627999999999,0.6463597,0.723371,0.0,0.0,0.0,34.65248,-1.138489,-28.243270000000003,-1.0,-1.0,-1.0,-0.4912688,1.008905,-0.0809471,-0.06105395,0.1720378,-0.03555412,2.71735,1.414078,31.59
3,0.3033295,-0.09872437,0.9477386,0.8602711,0.3033295,-0.09872437,0.9477386,-30.91736,-1.100906,-29.11668,2.162582,0.4153403,0.6432288,0.6530918000000001,0.0,0.0,0.0,34.65248,-1.138489,-28.243270000000003,-1.0,-1.0,-1.0,-0.4935974,1.009854,-0.08070895,-0.06515811,0.1515989,-0.03364493,2.71735,1.414078,31.59
3,0.3033295,-0.09872437,0.9477386,0.8602711,0.3033295,-0.09872437,0.9477386,-30.91736,-1.100906,-29.11668,2.162582,0.4153403,0.6432288,0.6530918000000001,0.0,0.0,0.0,34.65248,-1.138489,-28.243270000000003,-1.0,-1.0,-1.0,-0.4935974,1.009854,-0.08070895,-0.06515811,0.1515989,-0.03364493,2.71735,1.414078,31.59
3,0.3033295,-0.09872437,0.9477386,0.8602711,0.3033295,-0.09872437,0.9477386,-30.91736,-1.100906,-29.11668,2.162582,0.4153403,0.6432288,0.6530918000000001,0.0,0.0,0.0,34.65248,-1.138489,-28.243270000000003,-1.0,-1.0,-1.0,-0.4935974,1.009854,-0.08070895,-0.06515811,0.1515989,-0.03364493,2.71735,1.414078,31.59
3,0.2620087,-0.06582642,0.9628143,0.8348066999999999,0.2620087,-0.06582642,0.9628143,-31.10675,-1.124557,-29.08136,1.633865,0.4287272,0.636788,0.7018349,0.0,0.0,0.0,34.261959999999995,-1.212784,-28.0323,-1.0,-1.0,-1.0,-0.4959323,1.010487,-0.08078486,-0.06944127,0.1303653,-0.03218006,2.71735,-36.08163,31.59
3,0.2620087,-0.06582642,0.9628143,0.8348066999999999,0.2620087,-0.06582642,0.9628143,-31.10675,-1.124557,-29.08136,1.633865,0.4287272,0.636788,0.7018349,0.0,0.0,0.0,34.261959999999995,-1.212784,-28.0323,-1.0,-1.0,-1.0,-0.4959323,1.010487,-0.08078486,-0.06944127,0.1303653,-0.03218006,2.71735,-36.08163,31.59
3,0.2620087,-0.06582642,0.9628143,0.8348066999999999,0.2620087,-0.06582642,0.9628143,-31.10675,-1.124557,-29.08136,1.633865,0.4287272,0.636788,0.7018349,0.0,0.0,0.0,34.261959999999995,-1.212784,-28.0323,-1.0,-1.0,-1.0,-0.4959323,1.010487,-0.08078486,-0.06944127,0.1303653,-0.03218006,2.71735,-36.08163,31.59
3,0.2419127999999999,-0.1055756,0.9645233,0.8436566999999999,0.2419127999999999,-0.1055756,0.9645233,-31.25143,-1.168823,-29.042820000000003,2.112473,0.4375759,0.6452408000000001,0.8245714,0.0,0.0,0.0,34.261959999999995,-1.212784,-28.0323,-1.0,-1.0,-1.0,-0.4981366,1.011001,-0.08107209,-0.07337979,0.109204,-0.0311846,2.71735,-36.08163,31.59
3,0.2419127999999999,-0.1055756,0.9645233,0.8436566999999999,0.2419127999999999,-0.1055756,0.9645233,-31.25143,-1.168823,-29.042820000000003,2.112473,0.4375759,0.6452408000000001,0.8245714,0.0,0.0,0.0,34.261959999999995,-1.212784,-28.0323,-1.0,-1.0,-1.0,-0.4981366,1.011001,-0.08107209,-0.07337979,0.109204,-0.0311846,2.71735,-36.08163,31.59
3,0.2419127999999999,-0.1055756,0.9645233,0.8436566999999999,0.2419127999999999,-0.1055756,0.9645233,-31.25143,-1.168823,-29.042820000000003,2.112473,0.4375759,0.6452408000000001,0.8245714,0.0,0.0,0.0,34.261959999999995,-1.212784,-28.0323,-1.0,-1.0,-1.0,-0.4981366,1.011001,-0.08107209,-0.07337979,0.109204,-0.0311846,2.71735,-36.08163,31.59
3,0.1750641,-0.1199951,0.9772034,0.7879373000000001,0.1679687999999999,-0.1177673,0.978714,-31.48701,-1.1634520000000002,-28.987440000000003,2.341553,0.4586906,0.6461669,0.8676165000000001,0.3515778,-0.1739655,0.9198456,33.91386,-1.280823,-27.90497,3.134201,0.3952474,0.6524838000000001,-0.5004577,1.011726,-0.08152339,-0.07819602,0.08778859,-0.03040041,2.71735,-36.08163,31.59
3,0.1750641,-0.1199951,0.9772034,0.7879373000000001,0.1679687999999999,-0.1177673,0.978714,-31.48701,-1.1634520000000002,-28.987440000000003,2.341553,0.4586906,0.6461669,0.8676165000000001,0.3515778,-0.1739655,0.9198456,33.91386,-1.280823,-27.90497,3.134201,0.3952474,0.6524838000000001,-0.5004577,1.011726,-0.08152339,-0.07819602,0.08778859,-0.03040041,2.71735,-36.08163,31.59
3,0.1750641,-0.1199951,0.9772034,0.7879373000000001,0.1679687999999999,-0.1177673,0.978714,-31.48701,-1.1634520000000002,-28.987440000000003,2.341553,0.4586906,0.6461669,0.8676165000000001,0.3515778,-0.1739655,0.9198456,33.91386,-1.280823,-27.90497,3.134201,0.3952474,0.6524838000000001,-0.5004577,1.011726,-0.08152339,-0.07819602,0.08778859,-0.03040041,2.71735,-36.08163,31.59
3,0.287323,-0.1796569999999999,0.9408264,0.7888353,0.287323,-0.1796569999999999,0.9408264,-30.98743,-1.060822,-29.053420000000003,1.901505,0.4204569999999999,0.6558789,0.8205644,0.0,0.0,0.0,33.91386,-1.280823,-27.90497,-1.0,-1.0,-1.0,-0.5030503,1.012217,-0.0819346,-0.08196247,0.06604816,-0.03022984,2.71735,-36.08163,31.59
3,0.287323,-0.1796569999999999,0.9408264,0.7888353,0.287323,-0.1796569999999999,0.9408264,-30.98743,-1.060822,-29.053420000000003,1.901505,0.4204569999999999,0.6558789,0.8205644,0.0,0.0,0.0,33.91386,-1.280823,-27.90497,-1.0,-1.0,-1.0,-0.5030503,1.012217,-0.0819346,-0.08196247,0.06604816,-0.03022984,2.71735,-36.08163,31.59
3,0.287323,-0.1796569999999999,0.9408264,0.7888353,0.287323,-0.1796569999999999,0.9408264,-30.98743,-1.060822,-29.053420000000003,1.901505,0.4204569999999999,0.6558789,0.8205644,0.0,0.0,0.0,33.91386,-1.280823,-27.90497,-1.0,-1.0,-1.0,-0.5030503,1.012217,-0.0819346,-0.08196247,0.06604816,-0.03022984,2.71735,-36.08163,31.59
3,0.4056702,-0.02355957,0.9137115,0.8473970999999999,0.4056702,-0.02355957,0.9137115,-30.72499,-0.9797668,-29.26552,2.38063,0.3904243,0.628908,0.7613986999999999,0.0,0.0,0.0,34.56837,-0.9644775,-28.55103,-1.0,-1.0,-1.0,-0.5057504,1.012624,-0.08263624,-0.08581778,0.04522207,-0.03045991,2.71735,-36.08163,31.59
3,0.4056702,-0.02355957,0.9137115,0.8473970999999999,0.4056702,-0.02355957,0.9137115,-30.72499,-0.9797668,-29.26552,2.38063,0.3904243,0.628908,0.7613986999999999,0.0,0.0,0.0,34.56837,-0.9644775,-28.55103,-1.0,-1.0,-1.0,-0.5057504,1.012624,-0.08263624,-0.08581778,0.04522207,-0.03045991,2.71735,-36.08163,31.59
3,0.4056702,-0.02355957,0.9137115,0.8473970999999999,0.4056702,-0.02355957,0.9137115,-30.72499,-0.9797668,-29.26552,2.38063,0.3904243,0.628908,0.7613986999999999,0.0,0.0,0.0,34.56837,-0.9644775,-28.55103,-1.0,-1.0,-1.0,-0.5057504,1.012624,-0.08263624,-0.08581778,0.04522207,-0.03045991,2.71735,-36.08163,31.59
3,-1.0,-1.0,-1.0,0.8489399,0.0,0.0,0.0,-30.865920000000003,-1.024673,-29.15685,-1.0,-1.0,-1.0,0.7244195999999999,0.0,0.0,0.0,34.33838,-1.010818,-28.0883,-1.0,-1.0,-1.0,-0.5083399000000001,1.013057,-0.08354512,-0.09012799,0.02535979,-0.02971929,2.71735,-36.08163,31.59
3,-1.0,-1.0,-1.0,0.8489399,0.0,0.0,0.0,-30.865920000000003,-1.024673,-29.15685,-1.0,-1.0,-1.0,0.7244195999999999,0.0,0.0,0.0,34.33838,-1.010818,-28.0883,-1.0,-1.0,-1.0,-0.5083399000000001,1.013057,-0.08354512,-0.09012799,0.02535979,-0.02971929,2.71735,-36.08163,31.59
3,-1.0,-1.0,-1.0,0.8489399,0.0,0.0,0.0,-30.865920000000003,-1.024673,-29.15685,-1.0,-1.0,-1.0,0.7244195999999999,0.0,0.0,0.0,34.33838,-1.010818,-28.0883,-1.0,-1.0,-1.0,-0.5083399000000001,1.013057,-0.08354512,-0.09012799,0.02535979,-0.02971929,2.71735,-36.08163,31.59
3,0.2230987999999999,-0.05125427,0.9734344,0.8348767,0.2230987999999999,-0.05125427,0.9734344,-31.34641,-1.066391,-29.02005,2.1983490000000003,0.4441625,0.6315244000000001,0.7937263000000001,0.0,0.0,0.0,34.33838,-1.010818,-28.0883,-1.0,-1.0,-1.0,-0.5110127,1.013178,-0.08468732,-0.09270081,0.007419224,-0.02858427,2.71735,-10.15074,31.59
3,0.2230987999999999,-0.05125427,0.9734344,0.8348767,0.2230987999999999,-0.05125427,0.9734344,-31.34641,-1.066391,-29.02005,2.1983490000000003,0.4441625,0.6315244000000001,0.7937263000000001,0.0,0.0,0.0,34.33838,-1.010818,-28.0883,-1.0,-1.0,-1.0,-0.5110127,1.013178,-0.08468732,-0.09270081,0.007419224,-0.02858427,2.71735,-10.15074,31.59
3,0.2230987999999999,-0.05125427,0.9734344,0.8348767,0.2230987999999999,-0.05125427,0.9734344,-31.34641,-1.066391,-29.02005,2.1983490000000003,0.4441625,0.6315244000000001,0.7937263000000001,0.0,0.0,0.0,34.33838,-1.010818,-28.0883,-1.0,-1.0,-1.0,-0.5110127,1.013178,-0.08468732,-0.09270081,0.007419224,-0.02858427,2.71735,-10.15074,31.59
3,0.176239,-0.03155518,0.9838257,0.8570755999999999,0.176239,-0.03155518,0.9838257,-31.51053,-1.067352,-29.04317,1.989166,0.4578385999999999,0.6277142,0.8279828000000001,0.0,0.0,0.0,34.33838,-1.010818,-28.0883,-1.0,-1.0,-1.0,-0.5135353,1.013399,-0.08612356,-0.09398741,-0.008524843,-0.02692834,2.71735,-10.15074,31.59
3,0.176239,-0.03155518,0.9838257,0.8570755999999999,0.176239,-0.03155518,0.9838257,-31.51053,-1.067352,-29.04317,1.989166,0.4578385999999999,0.6277142,0.8279828000000001,0.0,0.0,0.0,34.33838,-1.010818,-28.0883,-1.0,-1.0,-1.0,-0.5135353,1.013399,-0.08612356,-0.09398741,-0.008524843,-0.02692834,2.71735,-10.15074,31.59
3,0.176239,-0.03155518,0.9838257,0.8570755999999999,0.176239,-0.03155518,0.9838257,-31.51053,-1.067352,-29.04317,1.989166,0.4578385999999999,0.6277142,0.8279828000000001,0.0,0.0,0.0,34.33838,-1.010818,-28.0883,-1.0,-1.0,-1.0,-0.5135353,1.013399,-0.08612356,-0.09398741,-0.008524843,-0.02692834,2.71735,-10.15074,31.59
3,0.181427,-0.05438232,0.9818878,0.8343497,0.181427,-0.05438232,0.9818878,-31.70793,-1.068207,-29.026290000000003,2.235092,0.4637751,0.6319382,0.8970421999999999,0.0,0.0,0.0,34.33838,-1.010818,-28.0883,-1.0,-1.0,-1.0,-0.515749,1.013586,-0.08821714,-0.09456085,-0.02229212,-0.02397711,2.71735,-10.15074,31.59
3,0.181427,-0.05438232,0.9818878,0.8343497,0.181427,-0.05438232,0.9818878,-31.70793,-1.068207,-29.026290000000003,2.235092,0.4637751,0.6319382,0.8970421999999999,0.0,0.0,0.0,34.33838,-1.010818,-28.0883,-1.0,-1.0,-1.0,-0.515749,1.013586,-0.08821714,-0.09456085,-0.02229212,-0.02397711,2.71735,-10.15074,31.59
3,0.181427,-0.05438232,0.9818878,0.8343497,0.181427,-0.05438232,0.9818878,-31.70793,-1.068207,-29.026290000000003,2.235092,0.4637751,0.6319382,0.8970421999999999,0.0,0.0,0.0,34.33838,-1.010818,-28.0883,-1.0,-1.0,-1.0,-0.515749,1.013586,-0.08821714,-0.09456085,-0.02229212,-0.02397711,2.71735,-10.15074,31.59
3,0.1587524,-0.06344604,0.9852753,0.8124697,0.1587524,-0.06344604,0.9852753,-31.90622,-1.1213229999999998,-28.78635,2.456268,0.4745771,0.6329342,0.9024997,0.0,0.0,0.0,34.33838,-1.010818,-28.0883,-1.0,-1.0,-1.0,-0.5176721,1.013964,-0.09039804,-0.09662218,-0.03393159,-0.01964081,2.71735,-10.15074,31.59
3,0.1587524,-0.06344604,0.9852753,0.8124697,0.1587524,-0.06344604,0.9852753,-31.90622,-1.1213229999999998,-28.78635,2.456268,0.4745771,0.6329342,0.9024997,0.0,0.0,0.0,34.33838,-1.010818,-28.0883,-1.0,-1.0,-1.0,-0.5176721,1.013964,-0.09039804,-0.09662218,-0.03393159,-0.01964081,2.71735,-10.15074,31.59
3,0.1587524,-0.06344604,0.9852753,0.8124697,0.1587524,-0.06344604,0.9852753,-31.90622,-1.1213229999999998,-28.78635,2.456268,0.4745771,0.6329342,0.9024997,0.0,0.0,0.0,34.33838,-1.010818,-28.0883,-1.0,-1.0,-1.0,-0.5176721,1.013964,-0.09039804,-0.09662218,-0.03393159,-0.01964081,2.71735,-10.15074,31.59
3,0.05793762,-0.07852173,0.995224,0.826089,0.05793762,-0.07852173,0.995224,-32.06842,-1.2397,-28.37163,1.446472,0.4972452999999999,0.6343729,0.8880671999999998,0.0,0.0,0.0,34.33838,-1.010818,-28.0883,-1.0,-1.0,-1.0,-0.5189379,1.014757,-0.09271768,-0.1005118,-0.04248134,-0.01508001,2.71735,24.67888,31.59
3,0.05793762,-0.07852173,0.995224,0.826089,0.05793762,-0.07852173,0.995224,-32.06842,-1.2397,-28.37163,1.446472,0.4972452999999999,0.6343729,0.8880671999999998,0.0,0.0,0.0,34.33838,-1.010818,-28.0883,-1.0,-1.0,-1.0,-0.5189379,1.014757,-0.09271768,-0.1005118,-0.04248134,-0.01508001,2.71735,24.67888,31.59
3,0.05793762,-0.07852173,0.995224,0.826089,0.05793762,-0.07852173,0.995224,-32.06842,-1.2397,-28.37163,1.446472,0.4972452999999999,0.6343729,0.8880671999999998,0.0,0.0,0.0,34.33838,-1.010818,-28.0883,-1.0,-1.0,-1.0,-0.5189379,1.014757,-0.09271768,-0.1005118,-0.04248134,-0.01508001,2.71735,24.67888,31.59
3,0.08151245,-0.06344604,0.9946442,0.8235925,0.08151245,-0.06344604,0.9946442,-32.12811,-1.136902,-28.74893,2.027145,0.4953545,0.6324656999999999,0.9109183,0.0,0.0,0.0,34.33838,-1.010818,-28.0883,-1.0,-1.0,-1.0,-0.5199351,1.015326,-0.09537199,-0.104739,-0.04953363,-0.01146097,2.71735,24.67888,31.59
3,0.08151245,-0.06344604,0.9946442,0.8235925,0.08151245,-0.06344604,0.9946442,-32.12811,-1.136902,-28.74893,2.027145,0.4953545,0.6324656999999999,0.9109183,0.0,0.0,0.0,34.33838,-1.010818,-28.0883,-1.0,-1.0,-1.0,-0.5199351,1.015326,-0.09537199,-0.104739,-0.04953363,-0.01146097,2.71735,24.67888,31.59
3,0.08151245,-0.06344604,0.9946442,0.8235925,0.08151245,-0.06344604,0.9946442,-32.12811,-1.136902,-28.74893,2.027145,0.4953545,0.6324656999999999,0.9109183,0.0,0.0,0.0,34.33838,-1.010818,-28.0883,-1.0,-1.0,-1.0,-0.5199351,1.015326,-0.09537199,-0.104739,-0.04953363,-0.01146097,2.71735,24.67888,31.59
3,0.08151245,-0.06344604,0.9946442,0.8235925,0.08151245,-0.06344604,0.9946442,-32.12811,-1.136902,-28.74893,2.027145,0.4953545,0.6324656999999999,0.9109183,0.0,0.0,0.0,34.33838,-1.010818,-28.0883,-1.0,-1.0,-1.0,-0.5210906,1.015899,-0.09809539,-0.1091698999999999,-0.05674734,-0.0082738109999999,2.71735,24.67888,31.59
3,0.08151245,-0.06344604,0.9946442,0.8235925,0.08151245,-0.06344604,0.9946442,-32.12811,-1.136902,-28.74893,2.027145,0.4953545,0.6324656999999999,0.9109183,0.0,0.0,0.0,34.33838,-1.010818,-28.0883,-1.0,-1.0,-1.0,-0.5210906,1.015899,-0.09809539,-0.1091698999999999,-0.05674734,-0.0082738109999999,2.71735,24.67888,31.59
3,0.08151245,-0.06344604,0.9946442,0.8235925,0.08151245,-0.06344604,0.9946442,-32.12811,-1.136902,-28.74893,2.027145,0.4953545,0.6324656999999999,0.9109183,0.0,0.0,0.0,34.33838,-1.010818,-28.0883,-1.0,-1.0,-1.0,-0.5210906,1.015899,-0.09809539,-0.1091698999999999,-0.05674734,-0.0082738109999999,2.71735,24.67888,31.59
3,0.1918945,-0.11026,0.9751892,0.7929662,0.1918945,-0.11026,0.9751892,-31.456740000000003,-1.0355530000000002,-28.94701,1.7186279999999998,0.4531886999999999,0.6398857,0.8643685999999999,0.0,0.0,0.0,34.33838,-1.010818,-28.0883,-1.0,-1.0,-1.0,-0.5224668,1.016371,-0.1010066,-0.1134796,-0.06515776,-0.007239294,2.71735,24.67888,31.59
3,0.1918945,-0.11026,0.9751892,0.7929662,0.1918945,-0.11026,0.9751892,-31.456740000000003,-1.0355530000000002,-28.94701,1.7186279999999998,0.4531886999999999,0.6398857,0.8643685999999999,0.0,0.0,0.0,34.33838,-1.010818,-28.0883,-1.0,-1.0,-1.0,-0.5224668,1.016371,-0.1010066,-0.1134796,-0.06515776,-0.007239294,2.71735,24.67888,31.59
3,0.1918945,-0.11026,0.9751892,0.7929662,0.1918945,-0.11026,0.9751892,-31.456740000000003,-1.0355530000000002,-28.94701,1.7186279999999998,0.4531886999999999,0.6398857,0.8643685999999999,0.0,0.0,0.0,34.33838,-1.010818,-28.0883,-1.0,-1.0,-1.0,-0.5224668,1.016371,-0.1010066,-0.1134796,-0.06515776,-0.007239294,2.71735,24.67888,31.59
3,0.2850342,-0.05010986,0.9571991,0.7929662,0.2850342,-0.05010986,0.9571991,-31.15689,-0.9355316,-29.0361,2.295807,0.4268874,0.6277961999999999,0.8643685999999999,0.0,0.0,0.0,34.33838,-1.010818,-28.0883,-1.0,-1.0,-1.0,-0.5241987,1.016956,-0.103875,-0.117072,-0.07473335,-0.00803256,2.71735,24.67888,31.59
3,0.2850342,-0.05010986,0.9571991,0.7929662,0.2850342,-0.05010986,0.9571991,-31.15689,-0.9355316,-29.0361,2.295807,0.4268874,0.6277961999999999,0.8643685999999999,0.0,0.0,0.0,34.33838,-1.010818,-28.0883,-1.0,-1.0,-1.0,-0.5241987,1.016956,-0.103875,-0.117072,-0.07473335,-0.00803256,2.71735,24.67888,31.59
3,0.2850342,-0.05010986,0.9571991,0.7929662,0.2850342,-0.05010986,0.9571991,-31.15689,-0.9355316,-29.0361,2.295807,0.4268874,0.6277961999999999,0.8643685999999999,0.0,0.0,0.0,34.33838,-1.010818,-28.0883,-1.0,-1.0,-1.0,-0.5241987,1.016956,-0.103875,-0.117072,-0.07473335,-0.00803256,2.71735,24.67888,31.59
3,-1.0,-1.0,-1.0,0.8416162,0.0,0.0,0.0,-30.8709,-0.9168396,-29.091490000000004,-1.0,-1.0,-1.0,0.7386813,0.0,0.0,0.0,34.33838,-1.010818,-28.0883,-1.0,-1.0,-1.0,-0.526148,1.017388,-0.1068936,-0.1202729,-0.08507732,-0.009519919,2.71735,24.67888,31.59
3,-1.0,-1.0,-1.0,0.8416162,0.0,0.0,0.0,-30.8709,-0.9168396,-29.091490000000004,-1.0,-1.0,-1.0,0.7386813,0.0,0.0,0.0,34.33838,-1.010818,-28.0883,-1.0,-1.0,-1.0,-0.526148,1.017388,-0.1068936,-0.1202729,-0.08507732,-0.009519919,2.71735,24.67888,31.59
3,-1.0,-1.0,-1.0,0.8416162,0.0,0.0,0.0,-30.8709,-0.9168396,-29.091490000000004,-1.0,-1.0,-1.0,0.7386813,0.0,0.0,0.0,34.33838,-1.010818,-28.0883,-1.0,-1.0,-1.0,-0.526148,1.017388,-0.1068936,-0.1202729,-0.08507732,-0.009519919,2.71735,24.67888,31.59
3,0.3312531,-0.1063538,0.9375153,0.8636855,0.3312531,-0.1063538,0.9375153,-31.0715,-1.0603790000000002,-29.06723,1.961105,0.415494,0.6431074999999999,0.7494864,0.0,0.0,0.0,34.33838,-1.010818,-28.0883,-1.0,-1.0,-1.0,-0.5281375,1.017961,-0.1097418,-0.1241087999999999,-0.09538637,-0.01110907,2.71735,12.47237,31.59
3,0.3312531,-0.1063538,0.9375153,0.8636855,0.3312531,-0.1063538,0.9375153,-31.0715,-1.0603790000000002,-29.06723,1.961105,0.415494,0.6431074999999999,0.7494864,0.0,0.0,0.0,34.33838,-1.010818,-28.0883,-1.0,-1.0,-1.0,-0.5281375,1.017961,-0.1097418,-0.1241087999999999,-0.09538637,-0.01110907,2.71735,12.47237,31.59
3,0.3312531,-0.1063538,0.9375153,0.8636855,0.3312531,-0.1063538,0.9375153,-31.0715,-1.0603790000000002,-29.06723,1.961105,0.415494,0.6431074999999999,0.7494864,0.0,0.0,0.0,34.33838,-1.010818,-28.0883,-1.0,-1.0,-1.0,-0.5281375,1.017961,-0.1097418,-0.1241087999999999,-0.09538637,-0.01110907,2.71735,12.47237,31.59
3,0.2814331,-0.109726,0.9532776,0.8341854,0.2814331,-0.109726,0.9532776,-31.18698,-1.1064,-29.01898,1.617035,0.4280489,0.6438658,0.6528832,0.0,0.0,0.0,34.33838,-1.010818,-28.0883,-1.0,-1.0,-1.0,-0.5299861,1.018392,-0.1124743999999999,-0.1270175,-0.105238,-0.0117142999999999,2.71735,12.47237,31.59
3,0.2814331,-0.109726,0.9532776,0.8341854,0.2814331,-0.109726,0.9532776,-31.18698,-1.1064,-29.01898,1.617035,0.4280489,0.6438658,0.6528832,0.0,0.0,0.0,34.33838,-1.010818,-28.0883,-1.0,-1.0,-1.0,-0.5299861,1.018392,-0.1124743999999999,-0.1270175,-0.105238,-0.0117142999999999,2.71735,12.47237,31.59
3,0.2814331,-0.109726,0.9532776,0.8341854,0.2814331,-0.109726,0.9532776,-31.18698,-1.1064,-29.01898,1.617035,0.4280489,0.6438658,0.6528832,0.0,0.0,0.0,34.33838,-1.010818,-28.0883,-1.0,-1.0,-1.0,-0.5299861,1.018392,-0.1124743999999999,-0.1270175,-0.105238,-0.0117142999999999,2.71735,12.47237,31.59
3,0.3019409,-0.06578064,0.9510498,0.8605008,0.3019409,-0.06578064,0.9510498,-31.25452,-1.129349,-29.05263,2.096741,0.42701,0.6375258,0.6681274,0.0,0.0,0.0,34.33838,-1.010818,-28.0883,-1.0,-1.0,-1.0,-0.5319471,1.018606,-0.1154801999999999,-0.1289029,-0.1151837,-0.010481,2.71735,12.47237,31.59
3,0.3019409,-0.06578064,0.9510498,0.8605008,0.3019409,-0.06578064,0.9510498,-31.25452,-1.129349,-29.05263,2.096741,0.42701,0.6375258,0.6681274,0.0,0.0,0.0,34.33838,-1.010818,-28.0883,-1.0,-1.0,-1.0,-0.5319471,1.018606,-0.1154801999999999,-0.1289029,-0.1151837,-0.010481,2.71735,12.47237,31.59
3,0.3019409,-0.06578064,0.9510498,0.8605008,0.3019409,-0.06578064,0.9510498,-31.25452,-1.129349,-29.05263,2.096741,0.42701,0.6375258,0.6681274,0.0,0.0,0.0,34.33838,-1.010818,-28.0883,-1.0,-1.0,-1.0,-0.5319471,1.018606,-0.1154801999999999,-0.1289029,-0.1151837,-0.010481,2.71735,12.47237,31.59
3,0.2548065,-0.1279906999999999,0.9584808,0.8436075000000001,0.2548065,-0.1279906999999999,0.9584808,-31.42868,-1.196304,-28.98451,1.991592,0.4412769,0.6498143,0.6137326999999999,0.0,0.0,0.0,34.33838,-1.010818,-28.0883,-1.0,-1.0,-1.0,-0.5338895,1.018618,-0.1182906,-0.1305412,-0.125341,-0.00897113,2.71735,12.47237,31.59
3,0.2548065,-0.1279906999999999,0.9584808,0.8436075000000001,0.2548065,-0.1279906999999999,0.9584808,-31.42868,-1.196304,-28.98451,1.991592,0.4412769,0.6498143,0.6137326999999999,0.0,0.0,0.0,34.33838,-1.010818,-28.0883,-1.0,-1.0,-1.0,-0.5338895,1.018618,-0.1182906,-0.1305412,-0.125341,-0.00897113,2.71735,12.47237,31.59
3,0.2548065,-0.1279906999999999,0.9584808,0.8436075000000001,0.2548065,-0.1279906999999999,0.9584808,-31.42868,-1.196304,-28.98451,1.991592,0.4412769,0.6498143,0.6137326999999999,0.0,0.0,0.0,34.33838,-1.010818,-28.0883,-1.0,-1.0,-1.0,-0.5338895,1.018618,-0.1182906,-0.1305412,-0.125341,-0.00897113,2.71735,12.47237,31.59
3,0.2106323,-0.1001128999999999,0.9724121,0.8542824,0.2106323,-0.1001128999999999,0.9724121,-31.492490000000004,-1.215698,-28.96478,2.041199,0.4512412999999999,0.6446986,0.7248565,0.0,0.0,0.0,34.33838,-1.010818,-28.0883,-1.0,-1.0,-1.0,-0.5356316999999999,1.018801,-0.1213388999999999,-0.1325006,-0.1348098,-0.007179353,2.71735,12.47237,31.59
3,0.2106323,-0.1001128999999999,0.9724121,0.8542824,0.2106323,-0.1001128999999999,0.9724121,-31.492490000000004,-1.215698,-28.96478,2.041199,0.4512412999999999,0.6446986,0.7248565,0.0,0.0,0.0,34.33838,-1.010818,-28.0883,-1.0,-1.0,-1.0,-0.5356316999999999,1.018801,-0.1213388999999999,-0.1325006,-0.1348098,-0.007179353,2.71735,12.47237,31.59
3,0.2106323,-0.1001128999999999,0.9724121,0.8542824,0.2106323,-0.1001128999999999,0.9724121,-31.492490000000004,-1.215698,-28.96478,2.041199,0.4512412999999999,0.6446986,0.7248565,0.0,0.0,0.0,34.33838,-1.010818,-28.0883,-1.0,-1.0,-1.0,-0.5356316999999999,1.018801,-0.1213388999999999,-0.1325006,-0.1348098,-0.007179353,2.71735,12.47237,31.59
3,0.2033234,-0.09104919,0.9748535,0.8726993000000001,0.2033234,-0.09104919,0.9748535,-31.61606,-1.246857,-28.96565,2.434128,0.4569345,0.6443059,0.7089653,0.0,0.0,0.0,34.33838,-1.010818,-28.0883,-1.0,-1.0,-1.0,-0.5375270000000001,1.018969,-0.124454,-0.1348654,-0.1452323999999999,-0.0061071769999999,2.71735,-34.43573,31.59
3,0.2033234,-0.09104919,0.9748535,0.8726993000000001,0.2033234,-0.09104919,0.9748535,-31.61606,-1.246857,-28.96565,2.434128,0.4569345,0.6443059,0.7089653,0.0,0.0,0.0,34.33838,-1.010818,-28.0883,-1.0,-1.0,-1.0,-0.5375270000000001,1.018969,-0.124454,-0.1348654,-0.1452323999999999,-0.0061071769999999,2.71735,-34.43573,31.59
3,0.2033234,-0.09104919,0.9748535,0.8726993000000001,0.2033234,-0.09104919,0.9748535,-31.61606,-1.246857,-28.96565,2.434128,0.4569345,0.6443059,0.7089653,0.0,0.0,0.0,34.33838,-1.010818,-28.0883,-1.0,-1.0,-1.0,-0.5375270000000001,1.018969,-0.124454,-0.1348654,-0.1452323999999999,-0.0061071769999999,2.71735,-34.43573,31.59
3,0.1840973,-0.08547974,0.9791718,0.8776616,0.1840973,-0.08547974,0.9791718,-31.72639,-1.283722,-28.95953,2.369293,0.4639963,0.6442985999999999,0.7577434000000001,0.0,0.0,0.0,34.33838,-1.010818,-28.0883,-1.0,-1.0,-1.0,-0.539385,1.018644,-0.1279703999999999,-0.1353315,-0.1556532,-0.005196239,2.71735,-34.43573,31.59
3,0.1840973,-0.08547974,0.9791718,0.8776616,0.1840973,-0.08547974,0.9791718,-31.72639,-1.283722,-28.95953,2.369293,0.4639963,0.6442985999999999,0.7577434000000001,0.0,0.0,0.0,34.33838,-1.010818,-28.0883,-1.0,-1.0,-1.0,-0.539385,1.018644,-0.1279703999999999,-0.1353315,-0.1556532,-0.005196239,2.71735,-34.43573,31.59
3,0.1840973,-0.08547974,0.9791718,0.8776616,0.1840973,-0.08547974,0.9791718,-31.72639,-1.283722,-28.95953,2.369293,0.4639963,0.6442985999999999,0.7577434000000001,0.0,0.0,0.0,34.33838,-1.010818,-28.0883,-1.0,-1.0,-1.0,-0.539385,1.018644,-0.1279703999999999,-0.1353315,-0.1556532,-0.005196239,2.71735,-34.43573,31.59
3,0.1634673999999999,-0.07814026,0.9834442,0.8549007,0.1634673999999999,-0.07814026,0.9834442,-31.89439,-1.288162,-28.92035,2.106796,0.4731701,0.6424175999999999,0.8248063,0.0,0.0,0.0,34.33838,-1.010818,-28.0883,-1.0,-1.0,-1.0,-0.5409183000000001,1.018484,-0.1315112,-0.1363677999999999,-0.1664438999999999,-0.004567453,2.71735,-34.43573,31.59
3,0.1634673999999999,-0.07814026,0.9834442,0.8549007,0.1634673999999999,-0.07814026,0.9834442,-31.89439,-1.288162,-28.92035,2.106796,0.4731701,0.6424175999999999,0.8248063,0.0,0.0,0.0,34.33838,-1.010818,-28.0883,-1.0,-1.0,-1.0,-0.5409183000000001,1.018484,-0.1315112,-0.1363677999999999,-0.1664438999999999,-0.004567453,2.71735,-34.43573,31.59
3,0.1634673999999999,-0.07814026,0.9834442,0.8549007,0.1634673999999999,-0.07814026,0.9834442,-31.89439,-1.288162,-28.92035,2.106796,0.4731701,0.6424175999999999,0.8248063,0.0,0.0,0.0,34.33838,-1.010818,-28.0883,-1.0,-1.0,-1.0,-0.5409183000000001,1.018484,-0.1315112,-0.1363677999999999,-0.1664438999999999,-0.004567453,2.71735,-34.43573,31.59
3,0.1634673999999999,-0.07814026,0.9834442,0.8549007,0.1634673999999999,-0.07814026,0.9834442,-31.89439,-1.288162,-28.92035,2.106796,0.4731701,0.6424175999999999,0.8248063,0.0,0.0,0.0,34.33838,-1.010818,-28.0883,-1.0,-1.0,-1.0,-0.542031,1.018605,-0.1350164,-0.1383295,-0.1758505,-0.005824942,2.71735,-34.43573,31.59
3,0.1634673999999999,-0.07814026,0.9834442,0.8549007,0.1634673999999999,-0.07814026,0.9834442,-31.89439,-1.288162,-28.92035,2.106796,0.4731701,0.6424175999999999,0.8248063,0.0,0.0,0.0,34.33838,-1.010818,-28.0883,-1.0,-1.0,-1.0,-0.542031,1.018605,-0.1350164,-0.1383295,-0.1758505,-0.005824942,2.71735,-34.43573,31.59
3,0.1634673999999999,-0.07814026,0.9834442,0.8549007,0.1634673999999999,-0.07814026,0.9834442,-31.89439,-1.288162,-28.92035,2.106796,0.4731701,0.6424175999999999,0.8248063,0.0,0.0,0.0,34.33838,-1.010818,-28.0883,-1.0,-1.0,-1.0,-0.542031,1.018605,-0.1350164,-0.1383295,-0.1758505,-0.005824942,2.71735,-34.43573,31.59
3,0.1634673999999999,-0.07814026,0.9834442,0.8549007,0.1634673999999999,-0.07814026,0.9834442,-31.89439,-1.288162,-28.92035,2.106796,0.4731701,0.6424175999999999,0.8248063,0.0,0.0,0.0,34.33838,-1.010818,-28.0883,-1.0,-1.0,-1.0,-0.5428863,1.019061,-0.1385565,-0.1416069,-0.1851414,-0.0059802,2.71735,-34.43573,31.59
3,0.1634673999999999,-0.07814026,0.9834442,0.8549007,0.1634673999999999,-0.07814026,0.9834442,-31.89439,-1.288162,-28.92035,2.106796,0.4731701,0.6424175999999999,0.8248063,0.0,0.0,0.0,34.33838,-1.010818,-28.0883,-1.0,-1.0,-1.0,-0.5428863,1.019061,-0.1385565,-0.1416069,-0.1851414,-0.0059802,2.71735,-34.43573,31.59
3,0.1634673999999999,-0.07814026,0.9834442,0.8549007,0.1634673999999999,-0.07814026,0.9834442,-31.89439,-1.288162,-28.92035,2.106796,0.4731701,0.6424175999999999,0.8248063,0.0,0.0,0.0,34.33838,-1.010818,-28.0883,-1.0,-1.0,-1.0,-0.5428863,1.019061,-0.1385565,-0.1416069,-0.1851414,-0.0059802,2.71735,-34.43573,31.59
3,0.1659241,-0.1051331,0.9805145,0.8545621999999999,0.1659241,-0.1051331,0.9805145,-31.93771,-1.29982,-28.87363,2.120438,0.4742342,0.6472766999999999,0.8437828000000002,0.0,0.0,0.0,34.33838,-1.010818,-28.0883,-1.0,-1.0,-1.0,-0.543428,1.019676,-0.1420908,-0.1455591,-0.1948782999999999,-0.0062207969999999,2.71735,24.52777,31.59
3,0.1659241,-0.1051331,0.9805145,0.8545621999999999,0.1659241,-0.1051331,0.9805145,-31.93771,-1.29982,-28.87363,2.120438,0.4742342,0.6472766999999999,0.8437828000000002,0.0,0.0,0.0,34.33838,-1.010818,-28.0883,-1.0,-1.0,-1.0,-0.543428,1.019676,-0.1420908,-0.1455591,-0.1948782999999999,-0.0062207969999999,2.71735,24.52777,31.59
3,0.1659241,-0.1051331,0.9805145,0.8545621999999999,0.1659241,-0.1051331,0.9805145,-31.93771,-1.29982,-28.87363,2.120438,0.4742342,0.6472766999999999,0.8437828000000002,0.0,0.0,0.0,34.33838,-1.010818,-28.0883,-1.0,-1.0,-1.0,-0.543428,1.019676,-0.1420908,-0.1455591,-0.1948782999999999,-0.0062207969999999,2.71735,24.52777,31.59
3,0.1659241,-0.1051331,0.9805145,0.8545621999999999,0.1659241,-0.1051331,0.9805145,-31.93771,-1.29982,-28.87363,2.120438,0.4742342,0.6472766999999999,0.8437828000000002,0.0,0.0,0.0,34.33838,-1.010818,-28.0883,-1.0,-1.0,-1.0,-0.5433745,1.020193,-0.1456544,-0.1486304,-0.2044142,-0.007016654,2.71735,24.52777,31.59
3,0.1659241,-0.1051331,0.9805145,0.8545621999999999,0.1659241,-0.1051331,0.9805145,-31.93771,-1.29982,-28.87363,2.120438,0.4742342,0.6472766999999999,0.8437828000000002,0.0,0.0,0.0,34.33838,-1.010818,-28.0883,-1.0,-1.0,-1.0,-0.5433745,1.020193,-0.1456544,-0.1486304,-0.2044142,-0.007016654,2.71735,24.52777,31.59
3,0.1659241,-0.1051331,0.9805145,0.8545621999999999,0.1659241,-0.1051331,0.9805145,-31.93771,-1.29982,-28.87363,2.120438,0.4742342,0.6472766999999999,0.8437828000000002,0.0,0.0,0.0,34.33838,-1.010818,-28.0883,-1.0,-1.0,-1.0,-0.5433745,1.020193,-0.1456544,-0.1486304,-0.2044142,-0.007016654,2.71735,24.52777,31.59
4,0.3473511,-0.08616638,0.9337616,0.8426549999999999,0.3473511,-0.08616638,0.9337616,-31.16525,-1.220764,-29.1086,2.332657,0.4160467,0.6458048000000001,0.6225859,0.0,0.0,0.0,34.33838,-1.010818,-28.0883,-1.0,-1.0,-1.0,-0.5428002,1.020203,-0.1490849,-0.1503505,-0.2141384,-0.006588405,2.71735,24.52777,31.59
4,0.3473511,-0.08616638,0.9337616,0.8426549999999999,0.3473511,-0.08616638,0.9337616,-31.16525,-1.220764,-29.1086,2.332657,0.4160467,0.6458048000000001,0.6225859,0.0,0.0,0.0,34.33838,-1.010818,-28.0883,-1.0,-1.0,-1.0,-0.5428002,1.020203,-0.1490849,-0.1503505,-0.2141384,-0.006588405,2.71735,24.52777,31.59
4,0.3473511,-0.08616638,0.9337616,0.8426549999999999,0.3473511,-0.08616638,0.9337616,-31.16525,-1.220764,-29.1086,2.332657,0.4160467,0.6458048000000001,0.6225859,0.0,0.0,0.0,34.33838,-1.010818,-28.0883,-1.0,-1.0,-1.0,-0.5428002,1.020203,-0.1490849,-0.1503505,-0.2141384,-0.006588405,2.71735,24.52777,31.59
4,0.2375336,-0.1512146,0.9595337,0.8345469000000001,0.2375336,-0.1512146,0.9595337,-31.39534,-1.350616,-28.97728,0.9568939,0.4424770999999999,0.6586814000000001,0.4986288,0.0,0.0,0.0,34.05927,-1.301498,-28.06285,-1.0,-1.0,-1.0,-0.5411705,1.020072,-0.1523418,-0.1520687,-0.2228518,-0.005664115,2.71735,24.52777,31.59
4,0.2375336,-0.1512146,0.9595337,0.8345469000000001,0.2375336,-0.1512146,0.9595337,-31.39534,-1.350616,-28.97728,0.9568939,0.4424770999999999,0.6586814000000001,0.4986288,0.0,0.0,0.0,34.05927,-1.301498,-28.06285,-1.0,-1.0,-1.0,-0.5411705,1.020072,-0.1523418,-0.1520687,-0.2228518,-0.005664115,2.71735,24.52777,31.59
4,0.2375336,-0.1512146,0.9595337,0.8345469000000001,0.2375336,-0.1512146,0.9595337,-31.39534,-1.350616,-28.97728,0.9568939,0.4424770999999999,0.6586814000000001,0.4986288,0.0,0.0,0.0,34.05927,-1.301498,-28.06285,-1.0,-1.0,-1.0,-0.5411705,1.020072,-0.1523418,-0.1520687,-0.2228518,-0.005664115,2.71735,24.52777,31.59
4,0.2827148,-0.1144562,0.9523315,0.8345469000000001,0.2827148,-0.1144562,0.9523315,-31.49628,-1.368149,-29.025740000000003,1.863373,0.4384734999999999,0.6539265999999999,0.4986288,0.0,0.0,0.0,34.05927,-1.301498,-28.06285,-1.0,-1.0,-1.0,-0.5390679,1.020025,-0.1552149,-0.1530382,-0.228294,-0.006815198,2.754506,24.52777,31.59
4,0.2827148,-0.1144562,0.9523315,0.8345469000000001,0.2827148,-0.1144562,0.9523315,-31.49628,-1.368149,-29.025740000000003,1.863373,0.4384734999999999,0.6539265999999999,0.4986288,0.0,0.0,0.0,34.05927,-1.301498,-28.06285,-1.0,-1.0,-1.0,-0.5390679,1.020025,-0.1552149,-0.1530382,-0.228294,-0.006815198,2.754506,24.52777,31.59
4,0.2827148,-0.1144562,0.9523315,0.8345469000000001,0.2827148,-0.1144562,0.9523315,-31.49628,-1.368149,-29.025740000000003,1.863373,0.4384734999999999,0.6539265999999999,0.4986288,0.0,0.0,0.0,34.05927,-1.301498,-28.06285,-1.0,-1.0,-1.0,-0.5390679,1.020025,-0.1552149,-0.1530382,-0.228294,-0.006815198,2.754506,24.52777,31.59
4,0.2607422,-0.08251953,0.9618683,0.8600219000000001,0.2607422,-0.08251953,0.9618683,-31.55023,-1.387924,-29.0244,2.293732,0.4444813,0.6486945,0.625311,0.0,0.0,0.0,34.05927,-1.301498,-28.06285,-1.0,-1.0,-1.0,-0.5363275,1.0200870000000002,-0.1575572999999999,-0.1541484,-0.2293882,-0.008057565,2.754506,24.52777,31.59
4,0.2607422,-0.08251953,0.9618683,0.8600219000000001,0.2607422,-0.08251953,0.9618683,-31.55023,-1.387924,-29.0244,2.293732,0.4444813,0.6486945,0.625311,0.0,0.0,0.0,34.05927,-1.301498,-28.06285,-1.0,-1.0,-1.0,-0.5363275,1.0200870000000002,-0.1575572999999999,-0.1541484,-0.2293882,-0.008057565,2.754506,24.52777,31.59
4,0.2607422,-0.08251953,0.9618683,0.8600219000000001,0.2607422,-0.08251953,0.9618683,-31.55023,-1.387924,-29.0244,2.293732,0.4444813,0.6486945,0.625311,0.0,0.0,0.0,34.05927,-1.301498,-28.06285,-1.0,-1.0,-1.0,-0.5363275,1.0200870000000002,-0.1575572999999999,-0.1541484,-0.2293882,-0.008057565,2.754506,24.52777,31.59
4,0.2518311,-0.08705139,0.9638367,0.8373412,0.2518311,-0.08705139,0.9638367,-31.58835,-1.402893,-29.0105,2.319855,0.4473731999999999,0.6497975,0.6011128000000001,0.0,0.0,0.0,34.05927,-1.301498,-28.06285,-1.0,-1.0,-1.0,-0.533079,1.02016,-0.1597848999999999,-0.1558148999999999,-0.2270522999999999,-0.008238615,2.754506,31.7706,31.59
4,0.2518311,-0.08705139,0.9638367,0.8373412,0.2518311,-0.08705139,0.9638367,-31.58835,-1.402893,-29.0105,2.319855,0.4473731999999999,0.6497975,0.6011128000000001,0.0,0.0,0.0,34.05927,-1.301498,-28.06285,-1.0,-1.0,-1.0,-0.533079,1.02016,-0.1597848999999999,-0.1558148999999999,-0.2270522999999999,-0.008238615,2.754506,31.7706,31.59
4,0.2518311,-0.08705139,0.9638367,0.8373412,0.2518311,-0.08705139,0.9638367,-31.58835,-1.402893,-29.0105,2.319855,0.4473731999999999,0.6497975,0.6011128000000001,0.0,0.0,0.0,34.05927,-1.301498,-28.06285,-1.0,-1.0,-1.0,-0.533079,1.02016,-0.1597848999999999,-0.1558148999999999,-0.2270522999999999,-0.008238615,2.754506,31.7706,31.59
4,0.2518311,-0.08705139,0.9638367,0.8373412,0.2518311,-0.08705139,0.9638367,-31.58835,-1.402893,-29.0105,2.319855,0.4473731999999999,0.6497975,0.6011128000000001,0.0,0.0,0.0,34.05927,-1.301498,-28.06285,-1.0,-1.0,-1.0,-0.5299304,1.02067,-0.1612441,-0.1598942,-0.2220666999999999,-0.008534452,2.754506,31.7706,31.59
4,0.2518311,-0.08705139,0.9638367,0.8373412,0.2518311,-0.08705139,0.9638367,-31.58835,-1.402893,-29.0105,2.319855,0.4473731999999999,0.6497975,0.6011128000000001,0.0,0.0,0.0,34.05927,-1.301498,-28.06285,-1.0,-1.0,-1.0,-0.5299304,1.02067,-0.1612441,-0.1598942,-0.2220666999999999,-0.008534452,2.754506,31.7706,31.59
4,0.2518311,-0.08705139,0.9638367,0.8373412,0.2518311,-0.08705139,0.9638367,-31.58835,-1.402893,-29.0105,2.319855,0.4473731999999999,0.6497975,0.6011128000000001,0.0,0.0,0.0,34.05927,-1.301498,-28.06285,-1.0,-1.0,-1.0,-0.5299304,1.02067,-0.1612441,-0.1598942,-0.2220666999999999,-0.008534452,2.754506,31.7706,31.59
4,0.2518311,-0.08705139,0.9638367,0.8373412,0.2518311,-0.08705139,0.9638367,-31.58835,-1.402893,-29.0105,2.319855,0.4473731999999999,0.6497975,0.6011128000000001,0.0,0.0,0.0,34.05927,-1.301498,-28.06285,-1.0,-1.0,-1.0,-0.5269529000000001,1.021248,-0.1620881,-0.1647397,-0.2146655999999999,-0.01008466,2.754506,31.7706,31.59
4,0.2518311,-0.08705139,0.9638367,0.8373412,0.2518311,-0.08705139,0.9638367,-31.58835,-1.402893,-29.0105,2.319855,0.4473731999999999,0.6497975,0.6011128000000001,0.0,0.0,0.0,34.05927,-1.301498,-28.06285,-1.0,-1.0,-1.0,-0.5269529000000001,1.021248,-0.1620881,-0.1647397,-0.2146655999999999,-0.01008466,2.754506,31.7706,31.59
4,0.2518311,-0.08705139,0.9638367,0.8373412,0.2518311,-0.08705139,0.9638367,-31.58835,-1.402893,-29.0105,2.319855,0.4473731999999999,0.6497975,0.6011128000000001,0.0,0.0,0.0,34.05927,-1.301498,-28.06285,-1.0,-1.0,-1.0,-0.5269529000000001,1.021248,-0.1620881,-0.1647397,-0.2146655999999999,-0.01008466,2.754506,31.7706,31.59
4,0.2562408,-0.08781433,0.9626007,0.8669391,0.2562408,-0.08781433,0.9626007,-31.525990000000004,-1.439789,-29.01721,2.386108,0.4445088,0.6513456999999999,0.6747896,0.0,0.0,0.0,34.05927,-1.301498,-28.06285,-1.0,-1.0,-1.0,-0.5242332000000001,1.021301,-0.1627001,-0.1678226,-0.207994,-0.01157996,2.754506,31.7706,31.59
4,0.2562408,-0.08781433,0.9626007,0.8669391,0.2562408,-0.08781433,0.9626007,-31.525990000000004,-1.439789,-29.01721,2.386108,0.4445088,0.6513456999999999,0.6747896,0.0,0.0,0.0,34.05927,-1.301498,-28.06285,-1.0,-1.0,-1.0,-0.5242332000000001,1.021301,-0.1627001,-0.1678226,-0.207994,-0.01157996,2.754506,31.7706,31.59
4,0.2562408,-0.08781433,0.9626007,0.8669391,0.2562408,-0.08781433,0.9626007,-31.525990000000004,-1.439789,-29.01721,2.386108,0.4445088,0.6513456999999999,0.6747896,0.0,0.0,0.0,34.05927,-1.301498,-28.06285,-1.0,-1.0,-1.0,-0.5242332000000001,1.021301,-0.1627001,-0.1678226,-0.207994,-0.01157996,2.754506,31.7706,31.59
4,0.2619476,-0.09761047,0.9601288,0.8712861999999999,0.2619476,-0.09761047,0.9601288,-31.46178,-1.475494,-29.04399,2.267944,0.4412259,0.6546228000000001,0.6048680999999999,0.0,0.0,0.0,34.05927,-1.301498,-28.06285,-1.0,-1.0,-1.0,-0.5220323,1.021239,-0.162869,-0.1694196,-0.2015875,-0.01287654,2.754506,107.7038,31.59
4,0.2619476,-0.09761047,0.9601288,0.8712861999999999,0.2619476,-0.09761047,0.9601288,-31.46178,-1.475494,-29.04399,2.267944,0.4412259,0.6546228000000001,0.6048680999999999,0.0,0.0,0.0,34.05927,-1.301498,-28.06285,-1.0,-1.0,-1.0,-0.5220323,1.021239,-0.162869,-0.1694196,-0.2015875,-0.01287654,2.754506,107.7038,31.59
4,0.2619476,-0.09761047,0.9601288,0.8712861999999999,0.2619476,-0.09761047,0.9601288,-31.46178,-1.475494,-29.04399,2.267944,0.4412259,0.6546228000000001,0.6048680999999999,0.0,0.0,0.0,34.05927,-1.301498,-28.06285,-1.0,-1.0,-1.0,-0.5220323,1.021239,-0.162869,-0.1694196,-0.2015875,-0.01287654,2.754506,107.7038,31.59
4,0.164917,-0.1615295,0.9729767,0.8358485000000001,0.1541595,-0.1496582,0.9766388,-31.65456,-1.441559,-28.92456,2.023315,0.4666134,0.6606175,0.5244035,0.2505493,-0.2563629,0.9335327,33.66919,-1.368439,-27.73889,3.131256,0.4215058,0.6676515000000001,-0.5203008,1.02098,-0.1627644,-0.1700674,-0.1958691,-0.01372246,2.754506,107.7038,31.59
4,0.164917,-0.1615295,0.9729767,0.8358485000000001,0.1541595,-0.1496582,0.9766388,-31.65456,-1.441559,-28.92456,2.023315,0.4666134,0.6606175,0.5244035,0.2505493,-0.2563629,0.9335327,33.66919,-1.368439,-27.73889,3.131256,0.4215058,0.6676515000000001,-0.5203008,1.02098,-0.1627644,-0.1700674,-0.1958691,-0.01372246,2.754506,107.7038,31.59
4,0.164917,-0.1615295,0.9729767,0.8358485000000001,0.1541595,-0.1496582,0.9766388,-31.65456,-1.441559,-28.92456,2.023315,0.4666134,0.6606175,0.5244035,0.2505493,-0.2563629,0.9335327,33.66919,-1.368439,-27.73889,3.131256,0.4215058,0.6676515000000001,-0.5203008,1.02098,-0.1627644,-0.1700674,-0.1958691,-0.01372246,2.754506,107.7038,31.59
4,-0.0680542,-0.0617981,0.9957581,0.7836221,-0.0680542,-0.0617981,0.9957581,-32.721509999999995,-1.306625,-29.04561,1.847168,0.5416404,0.641073,0.7305689000000001,0.0,0.0,0.0,33.66919,-1.368439,-27.73889,-1.0,-1.0,-1.0,-0.5187891,1.02104,-0.1621403,-0.1710687,-0.1891922999999999,-0.01384355,2.754506,107.7038,31.59
4,-0.0680542,-0.0617981,0.9957581,0.7836221,-0.0680542,-0.0617981,0.9957581,-32.721509999999995,-1.306625,-29.04561,1.847168,0.5416404,0.641073,0.7305689000000001,0.0,0.0,0.0,33.66919,-1.368439,-27.73889,-1.0,-1.0,-1.0,-0.5187891,1.02104,-0.1621403,-0.1710687,-0.1891922999999999,-0.01384355,2.754506,107.7038,31.59
4,-0.0680542,-0.0617981,0.9957581,0.7836221,-0.0680542,-0.0617981,0.9957581,-32.721509999999995,-1.306625,-29.04561,1.847168,0.5416404,0.641073,0.7305689000000001,0.0,0.0,0.0,33.66919,-1.368439,-27.73889,-1.0,-1.0,-1.0,-0.5187891,1.02104,-0.1621403,-0.1710687,-0.1891922999999999,-0.01384355,2.754506,107.7038,31.59
4,-0.139267,-0.1064301,0.9845123,0.7683076,-0.139267,-0.1064301,0.9845123,-33.54723,-1.457062,-28.87645,2.200104,0.5819703,0.6534001,0.6804039000000001,0.0,0.0,0.0,33.66919,-1.368439,-27.73889,-1.0,-1.0,-1.0,-0.5175006,1.021248,-0.1609351,-0.1721487,-0.1809359999999999,-0.01368767,2.754506,107.7038,31.59
4,-0.139267,-0.1064301,0.9845123,0.7683076,-0.139267,-0.1064301,0.9845123,-33.54723,-1.457062,-28.87645,2.200104,0.5819703,0.6534001,0.6804039000000001,0.0,0.0,0.0,33.66919,-1.368439,-27.73889,-1.0,-1.0,-1.0,-0.5175006,1.021248,-0.1609351,-0.1721487,-0.1809359999999999,-0.01368767,2.754506,107.7038,31.59
4,-0.139267,-0.1064301,0.9845123,0.7683076,-0.139267,-0.1064301,0.9845123,-33.54723,-1.457062,-28.87645,2.200104,0.5819703,0.6534001,0.6804039000000001,0.0,0.0,0.0,33.66919,-1.368439,-27.73889,-1.0,-1.0,-1.0,-0.5175006,1.021248,-0.1609351,-0.1721487,-0.1809359999999999,-0.01368767,2.754506,107.7038,31.59
4,-0.1820984,-0.1137543,0.9766693,0.8138772,-0.1820984,-0.1137543,0.9766693,-33.5674,-1.496078,-28.92995,2.202042,0.5902341,0.6570374,0.7649548,0.0,0.0,0.0,33.66919,-1.368439,-27.73889,-1.0,-1.0,-1.0,-0.5164016,1.021152,-0.1594402,-0.1714041,-0.1727838,-0.01262528,2.754506,107.7038,31.59
4,-0.1820984,-0.1137543,0.9766693,0.8138772,-0.1820984,-0.1137543,0.9766693,-33.5674,-1.496078,-28.92995,2.202042,0.5902341,0.6570374,0.7649548,0.0,0.0,0.0,33.66919,-1.368439,-27.73889,-1.0,-1.0,-1.0,-0.5164016,1.021152,-0.1594402,-0.1714041,-0.1727838,-0.01262528,2.754506,107.7038,31.59
4,-0.1820984,-0.1137543,0.9766693,0.8138772,-0.1820984,-0.1137543,0.9766693,-33.5674,-1.496078,-28.92995,2.202042,0.5902341,0.6570374,0.7649548,0.0,0.0,0.0,33.66919,-1.368439,-27.73889,-1.0,-1.0,-1.0,-0.5164016,1.021152,-0.1594402,-0.1714041,-0.1727838,-0.01262528,2.754506,107.7038,31.59
4,-0.1478119,-0.1063079999999999,0.9832764,0.8437583000000001,-0.1478119,-0.1063079999999999,0.9832764,-33.54677,-1.508301,-28.90295,2.277344,0.5834633,0.6555164000000001,0.8215496999999999,0.0,0.0,0.0,33.66919,-1.368439,-27.73889,-1.0,-1.0,-1.0,-0.5152422999999999,1.020624,-0.1580552999999999,-0.1692698999999999,-0.1636384,-0.01137025,2.754506,107.7038,31.59
4,-0.1478119,-0.1063079999999999,0.9832764,0.8437583000000001,-0.1478119,-0.1063079999999999,0.9832764,-33.54677,-1.508301,-28.90295,2.277344,0.5834633,0.6555164000000001,0.8215496999999999,0.0,0.0,0.0,33.66919,-1.368439,-27.73889,-1.0,-1.0,-1.0,-0.5152422999999999,1.020624,-0.1580552999999999,-0.1692698999999999,-0.1636384,-0.01137025,2.754506,107.7038,31.59
4,-0.1478119,-0.1063079999999999,0.9832764,0.8437583000000001,-0.1478119,-0.1063079999999999,0.9832764,-33.54677,-1.508301,-28.90295,2.277344,0.5834633,0.6555164000000001,0.8215496999999999,0.0,0.0,0.0,33.66919,-1.368439,-27.73889,-1.0,-1.0,-1.0,-0.5152422999999999,1.020624,-0.1580552999999999,-0.1692698999999999,-0.1636384,-0.01137025,2.754506,107.7038,31.59
